;RAW4.00
[RawHeader]
Date=01/07/2024
EstimatedTotalTime=839.359
FurtherDQLReading=0
HardwareIndicator=65519
MeasuredTotalTime=839.359
MeasurementFlag=1
NumberOfMeasuredRanges=1
NumberOfRanges=1
Time=21:18:10

[VarInfo]
Type=USER
Flags=0
Value=Lab Manager

[VarInfo]
Type=SAMPLEID
Flags=0
Value=Commander Sample ID

[VarInfo]
Type=COMMENT
Flags=0
Value=

[VarInfo]
Type=UTF
Flags=0
Value=

[VarInfo]
Type=CREATOR
Flags=0
Value=BrmlToV4Converter

[VarInfo]
Type=CREATOR_VERSION
Flags=0
Value=6.5.0.0

[HardwareConfiguration]
AbsorptionFactor=9999
ActivateAbsorber=0
Alpha1=1.5406
Alpha2=1.54439
AlphaAverage=1.54184
AlphaRatio=0.5
Analyzer=0
Anode=Cu
AntiScatteringSlit=9999
BeamOpticsFlags=0
Beta=1.39222
BetaRelativeIntensity=0
DeactivateAbsorber=0
DetectorSlit=9999
DivergenceSlit=9999
GoniometerControl=0
GoniometerDiameter=282
GoniometerModel=256
GoniometerStage=7
Monochromator=0
NearSampleSlit=9999
PrimarySollerSlit=9999
SampleChanger=0
SecondSollerSlit=9999
SynchronousAxis=0
ThinFilmAttachment=9999
WaveUnit=A

[RangeHeader]
ActuallyUsedLambda=1.54184
AdditionalDetectorMask=257
DataRecordLength=4
DelayTime=0
DisplayPlaneNumber=0
EstimatedScanTime=839
ExtraParametersMask=0
GeneratorCurrent=10
GeneratorVoltage=30
Increment=0.020279
Increment3=0
NumberOfCompletedData=3946
NumberOfCounts=1
NumberOfDetectors=0
NumberOfDrives=3
NumberOfEncoderDrives=0
NumberOfMeasuredData=3946
NumberOfVaryingParameters=0
RangeStartTime=0
RotationSpeed=0
ScanMode=1
ScanType=Locked Coupled
SimulatedMeasConditions=0
SlitChangerIn=0
SmootingWidth=0
Start=10.0003
Steps=3946
SynchronousRotation=0
Time=32

[VarInfo]
Type=PSD_DISCRIM
Flags=0
Value=0.11;0.25

[PSD]
ActualTwoTheta=9999
FirstUsedChannel=0
FixedPSD=0
PSDOpening=4.86695
PSDType=5

[Drive]
DriveFlags=1
DriveName=2Theta
DriveNumber=2
DriveOffset=0
OffsetIndex=0
OscillationAmplitude=0
OscillationSpeed=0
StartPosition=10.0003

[Drive]
DriveFlags=1
DriveName=Theta
DriveNumber=1
DriveOffset=0
OffsetIndex=0
OscillationAmplitude=0
OscillationSpeed=0
StartPosition=5.00015

[Drive]
DriveFlags=1
DriveName=Phi
DriveNumber=3
DriveOffset=0
OffsetIndex=0
OscillationAmplitude=0
OscillationSpeed=0
StartPosition=359.986

[Data]
     Angle,       PSD,
   10.0003,      1167,
   10.0206,      1267,
   10.0409,      1170,
   10.0611,      1293,
   10.0814,      1184,
   10.1017,      1162,
    10.122,      1258,
   10.1423,      1242,
   10.1625,      1243,
   10.1828,      1155,
   10.2031,      1233,
   10.2234,      1295,
   10.2437,      1268,
   10.2639,      1264,
   10.2842,      1246,
   10.3045,      1322,
   10.3248,      1253,
    10.345,      1241,
   10.3653,      1312,
   10.3856,      1239,
   10.4059,      1279,
   10.4262,      1261,
   10.4464,      1243,
   10.4667,      1293,
    10.487,      1288,
   10.5073,      1199,
   10.5276,      1332,
   10.5478,      1285,
   10.5681,      1268,
   10.5884,      1279,
   10.6087,      1331,
    10.629,      1274,
   10.6492,      1296,
   10.6695,      1331,
   10.6898,      1279,
   10.7101,      1294,
   10.7303,      1258,
   10.7506,      1329,
   10.7709,      1339,
   10.7912,      1309,
   10.8115,      1369,
   10.8317,      1370,
    10.852,      1259,
   10.8723,      1366,
   10.8926,      1390,
   10.9129,      1305,
   10.9331,      1405,
   10.9534,      1355,
   10.9737,      1323,
    10.994,      1321,
   11.0143,      1322,
   11.0345,      1293,
   11.0548,      1345,
   11.0751,      1379,
   11.0954,      1440,
   11.1156,      1367,
   11.1359,      1446,
   11.1562,      1415,
   11.1765,      1397,
   11.1968,      1309,
    11.217,      1275,
   11.2373,      1275,
   11.2576,      1356,
   11.2779,      1395,
   11.2982,      1358,
   11.3184,      1411,
   11.3387,      1463,
    11.359,      1366,
   11.3793,      1420,
   11.3996,      1370,
   11.4198,      1404,
   11.4401,      1350,
   11.4604,      1431,
   11.4807,      1432,
    11.501,      1537,
   11.5212,      1473,
   11.5415,      1445,
   11.5618,      1436,
   11.5821,      1424,
   11.6023,      1378,
   11.6226,      1419,
   11.6429,      1429,
   11.6632,      1547,
   11.6835,      1531,
   11.7037,      1506,
    11.724,      1534,
   11.7443,      1483,
   11.7646,      1494,
   11.7849,      1526,
   11.8051,      1462,
   11.8254,      1533,
   11.8457,      1498,
    11.866,      1501,
   11.8863,      1563,
   11.9065,      1480,
   11.9268,      1456,
   11.9471,      1494,
   11.9674,      1524,
   11.9876,      1515,
   12.0079,      1539,
   12.0282,      1490,
   12.0485,      1573,
   12.0688,      1512,
    12.089,      1558,
   12.1093,      1432,
   12.1296,      1528,
   12.1499,      1561,
   12.1702,      1553,
   12.1904,      1555,
   12.2107,      1551,
    12.231,      1544,
   12.2513,      1505,
   12.2716,      1515,
   12.2918,      1505,
   12.3121,      1600,
   12.3324,      1561,
   12.3527,      1516,
   12.3729,      1571,
   12.3932,      1616,
   12.4135,      1570,
   12.4338,      1478,
   12.4541,      1605,
   12.4743,      1538,
   12.4946,      1585,
   12.5149,      1538,
   12.5352,      1603,
   12.5555,      1542,
   12.5757,      1529,
    12.596,      1504,
   12.6163,      1619,
   12.6366,      1553,
   12.6569,      1560,
   12.6771,      1543,
   12.6974,      1645,
   12.7177,      1591,
    12.738,      1521,
   12.7582,      1571,
   12.7785,      1620,
   12.7988,      1631,
   12.8191,      1571,
   12.8394,      1487,
   12.8596,      1604,
   12.8799,      1541,
   12.9002,      1674,
   12.9205,      1561,
   12.9408,      1650,
    12.961,      1569,
   12.9813,      1659,
   13.0016,      1606,
   13.0219,      1598,
   13.0422,      1620,
   13.0624,      1609,
   13.0827,      1619,
    13.103,      1671,
   13.1233,      1644,
   13.1435,      1643,
   13.1638,      1550,
   13.1841,      1641,
   13.2044,      1629,
   13.2247,      1658,
   13.2449,      1602,
   13.2652,      1713,
   13.2855,      1676,
   13.3058,      1582,
   13.3261,      1659,
   13.3463,      1672,
   13.3666,      1627,
   13.3869,      1617,
   13.4072,      1661,
   13.4275,      1582,
   13.4477,      1605,
    13.468,      1706,
   13.4883,      1676,
   13.5086,      1632,
   13.5288,      1651,
   13.5491,      1674,
   13.5694,      1680,
   13.5897,      1659,
     13.61,      1612,
   13.6302,      1647,
   13.6505,      1613,
   13.6708,      1733,
   13.6911,      1592,
   13.7114,      1610,
   13.7316,      1604,
   13.7519,      1662,
   13.7722,      1621,
   13.7925,      1677,
   13.8128,      1609,
    13.833,      1632,
   13.8533,      1576,
   13.8736,      1669,
   13.8939,      1699,
   13.9141,      1637,
   13.9344,      1681,
   13.9547,      1632,
    13.975,      1625,
   13.9953,      1623,
   14.0155,      1664,
   14.0358,      1610,
   14.0561,      1662,
   14.0764,      1649,
   14.0967,      1624,
   14.1169,      1708,
   14.1372,      1724,
   14.1575,      1619,
   14.1778,      1599,
   14.1981,      1672,
   14.2183,      1675,
   14.2386,      1664,
   14.2589,      1636,
   14.2792,      1668,
   14.2994,      1637,
   14.3197,      1663,
     14.34,      1604,
   14.3603,      1580,
   14.3806,      1610,
   14.4008,      1712,
   14.4211,      1648,
   14.4414,      1621,
   14.4617,      1658,
    14.482,      1627,
   14.5022,      1659,
   14.5225,      1700,
   14.5428,      1656,
   14.5631,      1647,
   14.5834,      1620,
   14.6036,      1654,
   14.6239,      1666,
   14.6442,      1663,
   14.6645,      1657,
   14.6847,      1637,
    14.705,      1717,
   14.7253,      1773,
   14.7456,      1655,
   14.7659,      1604,
   14.7861,      1621,
   14.8064,      1664,
   14.8267,      1654,
    14.847,      1666,
   14.8673,      1625,
   14.8875,      1723,
   14.9078,      1642,
   14.9281,      1677,
   14.9484,      1744,
   14.9687,      1703,
   14.9889,      1673,
   15.0092,      1769,
   15.0295,      1664,
   15.0498,      1704,
   15.0701,      1655,
   15.0903,      1679,
   15.1106,      1603,
   15.1309,      1609,
   15.1512,      1700,
   15.1714,      1693,
   15.1917,      1630,
    15.212,      1698,
   15.2323,      1588,
   15.2526,      1669,
   15.2728,      1706,
   15.2931,      1697,
   15.3134,      1688,
   15.3337,      1638,
    15.354,      1652,
   15.3742,      1757,
   15.3945,      1734,
   15.4148,      1647,
   15.4351,      1648,
   15.4554,      1735,
   15.4756,      1745,
   15.4959,      1681,
   15.5162,      1643,
   15.5365,      1718,
   15.5567,      1667,
    15.577,      1665,
   15.5973,      1775,
   15.6176,      1705,
   15.6379,      1660,
   15.6581,      1588,
   15.6784,      1717,
   15.6987,      1702,
    15.719,      1662,
   15.7393,      1673,
   15.7595,      1643,
   15.7798,      1690,
   15.8001,      1645,
   15.8204,      1742,
   15.8407,      1659,
   15.8609,      1722,
   15.8812,      1671,
   15.9015,      1730,
   15.9218,      1713,
    15.942,      1701,
   15.9623,      1741,
   15.9826,      1687,
   16.0029,      1686,
   16.0232,      1703,
   16.0434,      1681,
   16.0637,      1679,
    16.084,      1690,
   16.1043,      1717,
   16.1246,      1720,
   16.1448,      1710,
   16.1651,      1675,
   16.1854,      1658,
   16.2057,      1635,
    16.226,      1597,
   16.2462,      1662,
   16.2665,      1624,
   16.2868,      1652,
   16.3071,      1693,
   16.3273,      1715,
   16.3476,      1659,
   16.3679,      1626,
   16.3882,      1711,
   16.4085,      1639,
   16.4287,      1702,
    16.449,      1631,
   16.4693,      1655,
   16.4896,      1717,
   16.5099,      1677,
   16.5301,      1631,
   16.5504,      1639,
   16.5707,      1643,
    16.591,      1708,
   16.6113,      1693,
   16.6315,      1661,
   16.6518,      1619,
   16.6721,      1705,
   16.6924,      1646,
   16.7126,      1755,
   16.7329,      1604,
   16.7532,      1683,
   16.7735,      1705,
   16.7938,      1719,
    16.814,      1639,
   16.8343,      1689,
   16.8546,      1668,
   16.8749,      1622,
   16.8952,      1755,
   16.9154,      1738,
   16.9357,      1594,
    16.956,      1570,
   16.9763,      1634,
   16.9966,      1726,
   17.0168,      1690,
   17.0371,      1611,
   17.0574,      1664,
   17.0777,      1650,
   17.0979,      1662,
   17.1182,      1708,
   17.1385,      1695,
   17.1588,      1711,
   17.1791,      1702,
   17.1993,      1624,
   17.2196,      1655,
   17.2399,      1607,
   17.2602,      1642,
   17.2805,      1651,
   17.3007,      1638,
    17.321,      1711,
   17.3413,      1656,
   17.3616,      1610,
   17.3819,      1688,
   17.4021,      1692,
   17.4224,      1636,
   17.4427,      1641,
    17.463,      1720,
   17.4832,      1575,
   17.5035,      1616,
   17.5238,      1663,
   17.5441,      1663,
   17.5644,      1708,
   17.5846,      1701,
   17.6049,      1695,
   17.6252,      1689,
   17.6455,      1584,
   17.6658,      1707,
    17.686,      1684,
   17.7063,      1697,
   17.7266,      1728,
   17.7469,      1635,
   17.7672,      1640,
   17.7874,      1723,
   17.8077,      1591,
    17.828,      1663,
   17.8483,      1590,
   17.8685,      1698,
   17.8888,      1706,
   17.9091,      1712,
   17.9294,      1580,
   17.9497,      1729,
   17.9699,      1608,
   17.9902,      1698,
   18.0105,      1716,
   18.0308,      1724,
   18.0511,      1606,
   18.0713,      1647,
   18.0916,      1637,
   18.1119,      1667,
   18.1322,      1675,
   18.1525,      1733,
   18.1727,      1668,
    18.193,      1672,
   18.2133,      1629,
   18.2336,      1759,
   18.2539,      1727,
   18.2741,      1792,
   18.2944,      1711,
   18.3147,      1705,
    18.335,      1832,
   18.3552,      1823,
   18.3755,      1814,
   18.3958,      1812,
   18.4161,      1800,
   18.4364,      1817,
   18.4566,      1898,
   18.4769,      1883,
   18.4972,      1866,
   18.5175,      1853,
   18.5378,      1852,
    18.558,      1858,
   18.5783,      1847,
   18.5986,      1915,
   18.6189,      2040,
   18.6392,      1973,
   18.6594,      2033,
   18.6797,      2042,
      18.7,      2147,
   18.7203,      2410,
   18.7405,      2878,
   18.7608,      3357,
   18.7811,      4275,
   18.8014,      5493,
   18.8217,      7144,
   18.8419,      9024,
   18.8622,     11100,
   18.8825,     12810,
   18.9028,     13223,
   18.9231,     11931,
   18.9433,      9627,
   18.9636,      7087,
   18.9839,      4853,
   19.0042,      3286,
   19.0245,      2474,
   19.0447,      2185,
    19.065,      2032,
   19.0853,      1983,
   19.1056,      1877,
   19.1258,      1907,
   19.1461,      1856,
   19.1664,      1855,
   19.1867,      1885,
    19.207,      1778,
   19.2272,      1815,
   19.2475,      1787,
   19.2678,      1782,
   19.2881,      1749,
   19.3084,      1664,
   19.3286,      1670,
   19.3489,      1672,
   19.3692,      1668,
   19.3895,      1703,
   19.4098,      1692,
     19.43,      1690,
   19.4503,      1697,
   19.4706,      1721,
   19.4909,      1690,
   19.5111,      1713,
   19.5314,      1654,
   19.5517,      1708,
    19.572,      1715,
   19.5923,      1620,
   19.6125,      1619,
   19.6328,      1673,
   19.6531,      1638,
   19.6734,      1637,
   19.6937,      1672,
   19.7139,      1664,
   19.7342,      1699,
   19.7545,      1606,
   19.7748,      1601,
   19.7951,      1673,
   19.8153,      1705,
   19.8356,      1634,
   19.8559,      1555,
   19.8762,      1717,
   19.8964,      1703,
   19.9167,      1618,
    19.937,      1665,
   19.9573,      1700,
   19.9776,      1733,
   19.9978,      1645,
   20.0181,      1631,
   20.0384,      1650,
   20.0587,      1625,
    20.079,      1681,
   20.0992,      1628,
   20.1195,      1652,
   20.1398,      1633,
   20.1601,      1636,
   20.1804,      1665,
   20.2006,      1616,
   20.2209,      1636,
   20.2412,      1628,
   20.2615,      1626,
   20.2817,      1626,
    20.302,      1684,
   20.3223,      1673,
   20.3426,      1574,
   20.3629,      1687,
   20.3831,      1673,
   20.4034,      1663,
   20.4237,      1690,
    20.444,      1630,
   20.4643,      1618,
   20.4845,      1623,
   20.5048,      1691,
   20.5251,      1628,
   20.5454,      1679,
   20.5657,      1734,
   20.5859,      1619,
   20.6062,      1703,
   20.6265,      1683,
   20.6468,      1534,
    20.667,      1671,
   20.6873,      1612,
   20.7076,      1635,
   20.7279,      1593,
   20.7482,      1637,
   20.7684,      1573,
   20.7887,      1606,
    20.809,      1584,
   20.8293,      1654,
   20.8496,      1624,
   20.8698,      1657,
   20.8901,      1617,
   20.9104,      1649,
   20.9307,      1634,
    20.951,      1532,
   20.9712,      1547,
   20.9915,      1586,
   21.0118,      1604,
   21.0321,      1502,
   21.0523,      1627,
   21.0726,      1513,
   21.0929,      1591,
   21.1132,      1600,
   21.1335,      1583,
   21.1537,      1631,
    21.174,      1568,
   21.1943,      1589,
   21.2146,      1558,
   21.2349,      1596,
   21.2551,      1586,
   21.2754,      1612,
   21.2957,      1616,
    21.316,      1611,
   21.3363,      1693,
   21.3565,      1569,
   21.3768,      1604,
   21.3971,      1597,
   21.4174,      1608,
   21.4376,      1631,
   21.4579,      1647,
   21.4782,      1618,
   21.4985,      1645,
   21.5188,      1559,
    21.539,      1559,
   21.5593,      1611,
   21.5796,      1590,
   21.5999,      1597,
   21.6202,      1618,
   21.6404,      1584,
   21.6607,      1518,
    21.681,      1532,
   21.7013,      1679,
   21.7216,      1594,
   21.7418,      1565,
   21.7621,      1560,
   21.7824,      1546,
   21.8027,      1585,
    21.823,      1603,
   21.8432,      1543,
   21.8635,      1524,
   21.8838,      1612,
   21.9041,      1682,
   21.9243,      1570,
   21.9446,      1549,
   21.9649,      1544,
   21.9852,      1545,
   22.0055,      1573,
   22.0257,      1650,
    22.046,      1517,
   22.0663,      1607,
   22.0866,      1566,
   22.1069,      1605,
   22.1271,      1668,
   22.1474,      1518,
   22.1677,      1591,
    22.188,      1629,
   22.2083,      1598,
   22.2285,      1606,
   22.2488,      1578,
   22.2691,      1538,
   22.2894,      1561,
   22.3096,      1581,
   22.3299,      1595,
   22.3502,      1623,
   22.3705,      1594,
   22.3908,      1509,
    22.411,      1506,
   22.4313,      1527,
   22.4516,      1609,
   22.4719,      1660,
   22.4922,      1503,
   22.5124,      1590,
   22.5327,      1595,
    22.553,      1624,
   22.5733,      1557,
   22.5936,      1548,
   22.6138,      1573,
   22.6341,      1560,
   22.6544,      1536,
   22.6747,      1566,
   22.6949,      1574,
   22.7152,      1551,
   22.7355,      1596,
   22.7558,      1569,
   22.7761,      1603,
   22.7963,      1574,
   22.8166,      1545,
   22.8369,      1496,
   22.8572,      1559,
   22.8775,      1571,
   22.8977,      1618,
    22.918,      1572,
   22.9383,      1555,
   22.9586,      1522,
   22.9789,      1612,
   22.9991,      1657,
   23.0194,      1653,
   23.0397,      1512,
     23.06,      1542,
   23.0802,      1516,
   23.1005,      1559,
   23.1208,      1545,
   23.1411,      1507,
   23.1614,      1582,
   23.1816,      1551,
   23.2019,      1528,
   23.2222,      1591,
   23.2425,      1631,
   23.2628,      1452,
    23.283,      1619,
   23.3033,      1623,
   23.3236,      1523,
   23.3439,      1514,
   23.3642,      1568,
   23.3844,      1490,
   23.4047,      1529,
    23.425,      1537,
   23.4453,      1466,
   23.4655,      1578,
   23.4858,      1574,
   23.5061,      1577,
   23.5264,      1535,
   23.5467,      1648,
   23.5669,      1611,
   23.5872,      1629,
   23.6075,      1620,
   23.6278,      1605,
   23.6481,      1553,
   23.6683,      1589,
   23.6886,      1541,
   23.7089,      1573,
   23.7292,      1534,
   23.7495,      1554,
   23.7697,      1603,
     23.79,      1570,
   23.8103,      1565,
   23.8306,      1469,
   23.8508,      1507,
   23.8711,      1533,
   23.8914,      1648,
   23.9117,      1493,
    23.932,      1557,
   23.9522,      1523,
   23.9725,      1544,
   23.9928,      1544,
   24.0131,      1576,
   24.0334,      1583,
   24.0536,      1492,
   24.0739,      1609,
   24.0942,      1489,
   24.1145,      1556,
   24.1348,      1533,
    24.155,      1586,
   24.1753,      1528,
   24.1956,      1545,
   24.2159,      1586,
   24.2361,      1542,
   24.2564,      1545,
   24.2767,      1571,
    24.297,      1508,
   24.3173,      1615,
   24.3375,      1553,
   24.3578,      1634,
   24.3781,      1601,
   24.3984,      1606,
   24.4187,      1576,
   24.4389,      1551,
   24.4592,      1521,
   24.4795,      1580,
   24.4998,      1568,
   24.5201,      1507,
   24.5403,      1556,
   24.5606,      1541,
   24.5809,      1553,
   24.6012,      1511,
   24.6214,      1550,
   24.6417,      1558,
    24.662,      1540,
   24.6823,      1541,
   24.7026,      1527,
   24.7228,      1541,
   24.7431,      1592,
   24.7634,      1617,
   24.7837,      1620,
    24.804,      1581,
   24.8242,      1572,
   24.8445,      1563,
   24.8648,      1625,
   24.8851,      1525,
   24.9054,      1542,
   24.9256,      1455,
   24.9459,      1619,
   24.9662,      1502,
   24.9865,      1608,
   25.0068,      1519,
    25.027,      1538,
   25.0473,      1556,
   25.0676,      1536,
   25.0879,      1600,
   25.1081,      1509,
   25.1284,      1621,
   25.1487,      1561,
    25.169,      1528,
   25.1893,      1551,
   25.2095,      1538,
   25.2298,      1588,
   25.2501,      1617,
   25.2704,      1570,
   25.2907,      1544,
   25.3109,      1555,
   25.3312,      1538,
   25.3515,      1544,
   25.3718,      1559,
   25.3921,      1526,
   25.4123,      1576,
   25.4326,      1578,
   25.4529,      1477,
   25.4732,      1617,
   25.4934,      1637,
   25.5137,      1532,
    25.534,      1576,
   25.5543,      1563,
   25.5746,      1608,
   25.5948,      1564,
   25.6151,      1482,
   25.6354,      1612,
   25.6557,      1553,
    25.676,      1549,
   25.6962,      1592,
   25.7165,      1512,
   25.7368,      1538,
   25.7571,      1595,
   25.7774,      1656,
   25.7976,      1581,
   25.8179,      1572,
   25.8382,      1569,
   25.8585,      1570,
   25.8787,      1561,
    25.899,      1536,
   25.9193,      1611,
   25.9396,      1593,
   25.9599,      1524,
   25.9801,      1522,
   26.0004,      1578,
   26.0207,      1615,
    26.041,      1523,
   26.0613,      1627,
   26.0815,      1504,
   26.1018,      1562,
   26.1221,      1700,
   26.1424,      1539,
   26.1627,      1518,
   26.1829,      1567,
   26.2032,      1539,
   26.2235,      1550,
   26.2438,      1554,
    26.264,      1603,
   26.2843,      1571,
   26.3046,      1583,
   26.3249,      1546,
   26.3452,      1536,
   26.3654,      1553,
   26.3857,      1519,
    26.406,      1614,
   26.4263,      1610,
   26.4466,      1653,
   26.4668,      1542,
   26.4871,      1566,
   26.5074,      1583,
   26.5277,      1570,
    26.548,      1643,
   26.5682,      1608,
   26.5885,      1533,
   26.6088,      1606,
   26.6291,      1511,
   26.6493,      1579,
   26.6696,      1672,
   26.6899,      1530,
   26.7102,      1556,
   26.7305,      1611,
   26.7507,      1465,
    26.771,      1577,
   26.7913,      1605,
   26.8116,      1541,
   26.8319,      1509,
   26.8521,      1530,
   26.8724,      1599,
   26.8927,      1506,
    26.913,      1614,
   26.9333,      1567,
   26.9535,      1581,
   26.9738,      1608,
   26.9941,      1572,
   27.0144,      1546,
   27.0346,      1623,
   27.0549,      1598,
   27.0752,      1583,
   27.0955,      1626,
   27.1158,      1617,
    27.136,      1536,
   27.1563,      1605,
   27.1766,      1686,
   27.1969,      1547,
   27.2172,      1611,
   27.2374,      1622,
   27.2577,      1599,
    27.278,      1622,
   27.2983,      1576,
   27.3186,      1546,
   27.3388,      1618,
   27.3591,      1582,
   27.3794,      1576,
   27.3997,      1584,
   27.4199,      1562,
   27.4402,      1678,
   27.4605,      1521,
   27.4808,      1562,
   27.5011,      1598,
   27.5213,      1571,
   27.5416,      1576,
   27.5619,      1668,
   27.5822,      1609,
   27.6025,      1570,
   27.6227,      1716,
    27.643,      1580,
   27.6633,      1623,
   27.6836,      1506,
   27.7039,      1568,
   27.7241,      1533,
   27.7444,      1647,
   27.7647,      1561,
    27.785,      1558,
   27.8052,      1618,
   27.8255,      1595,
   27.8458,      1559,
   27.8661,      1562,
   27.8864,      1566,
   27.9066,      1580,
   27.9269,      1586,
   27.9472,      1550,
   27.9675,      1636,
   27.9878,      1595,
    28.008,      1658,
   28.0283,      1591,
   28.0486,      1585,
   28.0689,      1643,
   28.0892,      1626,
   28.1094,      1575,
   28.1297,      1477,
     28.15,      1598,
   28.1703,      1583,
   28.1905,      1603,
   28.2108,      1642,
   28.2311,      1532,
   28.2514,      1616,
   28.2717,      1638,
   28.2919,      1619,
   28.3122,      1596,
   28.3325,      1537,
   28.3528,      1621,
   28.3731,      1598,
   28.3933,      1558,
   28.4136,      1631,
   28.4339,      1660,
   28.4542,      1616,
   28.4745,      1590,
   28.4947,      1599,
    28.515,      1564,
   28.5353,      1589,
   28.5556,      1569,
   28.5759,      1578,
   28.5961,      1612,
   28.6164,      1531,
   28.6367,      1616,
    28.657,      1603,
   28.6772,      1603,
   28.6975,      1632,
   28.7178,      1589,
   28.7381,      1597,
   28.7584,      1642,
   28.7786,      1650,
   28.7989,      1614,
   28.8192,      1650,
   28.8395,      1575,
   28.8598,      1638,
     28.88,      1570,
   28.9003,      1614,
   28.9206,      1575,
   28.9409,      1552,
   28.9612,      1598,
   28.9814,      1564,
   29.0017,      1562,
    29.022,      1617,
   29.0423,      1587,
   29.0625,      1562,
   29.0828,      1597,
   29.1031,      1653,
   29.1234,      1545,
   29.1437,      1599,
   29.1639,      1611,
   29.1842,      1648,
   29.2045,      1590,
   29.2248,      1566,
   29.2451,      1634,
   29.2653,      1664,
   29.2856,      1605,
   29.3059,      1536,
   29.3262,      1632,
   29.3465,      1606,
   29.3667,      1624,
    29.387,      1590,
   29.4073,      1634,
   29.4276,      1576,
   29.4478,      1584,
   29.4681,      1592,
   29.4884,      1635,
   29.5087,      1593,
    29.529,      1595,
   29.5492,      1677,
   29.5695,      1587,
   29.5898,      1560,
   29.6101,      1547,
   29.6304,      1618,
   29.6506,      1688,
   29.6709,      1639,
   29.6912,      1622,
   29.7115,      1655,
   29.7318,      1573,
    29.752,      1625,
   29.7723,      1621,
   29.7926,      1578,
   29.8129,      1561,
   29.8331,      1597,
   29.8534,      1650,
   29.8737,      1608,
    29.894,      1622,
   29.9143,      1558,
   29.9345,      1642,
   29.9548,      1562,
   29.9751,      1606,
   29.9954,      1690,
   30.0157,      1558,
   30.0359,      1628,
   30.0562,      1567,
   30.0765,      1611,
   30.0968,      1551,
   30.1171,      1594,
   30.1373,      1515,
   30.1576,      1562,
   30.1779,      1579,
   30.1982,      1654,
   30.2184,      1559,
   30.2387,      1671,
    30.259,      1600,
   30.2793,      1527,
   30.2996,      1581,
   30.3198,      1534,
   30.3401,      1609,
   30.3604,      1642,
   30.3807,      1656,
    30.401,      1615,
   30.4212,      1739,
   30.4415,      1648,
   30.4618,      1607,
   30.4821,      1630,
   30.5024,      1584,
   30.5226,      1584,
   30.5429,      1623,
   30.5632,      1668,
   30.5835,      1657,
   30.6037,      1621,
    30.624,      1591,
   30.6443,      1600,
   30.6646,      1692,
   30.6849,      1684,
   30.7051,      1623,
   30.7254,      1640,
   30.7457,      1674,
    30.766,      1613,
   30.7863,      1610,
   30.8065,      1648,
   30.8268,      1616,
   30.8471,      1611,
   30.8674,      1571,
   30.8877,      1554,
   30.9079,      1700,
   30.9282,      1556,
   30.9485,      1602,
   30.9688,      1548,
    30.989,      1674,
   31.0093,      1584,
   31.0296,      1570,
   31.0499,      1612,
   31.0702,      1645,
   31.0904,      1660,
   31.1107,      1592,
    31.131,      1567,
   31.1513,      1640,
   31.1716,      1513,
   31.1918,      1616,
   31.2121,      1521,
   31.2324,      1626,
   31.2527,      1553,
    31.273,      1616,
   31.2932,      1555,
   31.3135,      1613,
   31.3338,      1585,
   31.3541,      1607,
   31.3743,      1672,
   31.3946,      1661,
   31.4149,      1631,
   31.4352,      1644,
   31.4555,      1607,
   31.4757,      1503,
    31.496,      1589,
   31.5163,      1580,
   31.5366,      1606,
   31.5569,      1666,
   31.5771,      1521,
   31.5974,      1575,
   31.6177,      1621,
    31.638,      1618,
   31.6583,      1597,
   31.6785,      1535,
   31.6988,      1655,
   31.7191,      1596,
   31.7394,      1549,
   31.7596,      1639,
   31.7799,      1592,
   31.8002,      1527,
   31.8205,      1684,
   31.8408,      1617,
    31.861,      1722,
   31.8813,      1572,
   31.9016,      1638,
   31.9219,      1681,
   31.9422,      1617,
   31.9624,      1508,
   31.9827,      1591,
    32.003,      1648,
   32.0233,      1538,
   32.0436,      1548,
   32.0638,      1609,
   32.0841,      1610,
   32.1044,      1575,
   32.1247,      1623,
    32.145,      1690,
   32.1652,      1602,
   32.1855,      1599,
   32.2058,      1621,
   32.2261,      1557,
   32.2463,      1585,
   32.2666,      1611,
   32.2869,      1602,
   32.3072,      1636,
   32.3275,      1610,
   32.3477,      1533,
    32.368,      1566,
   32.3883,      1600,
   32.4086,      1600,
   32.4289,      1638,
   32.4491,      1667,
   32.4694,      1655,
   32.4897,      1647,
     32.51,      1604,
   32.5303,      1600,
   32.5505,      1640,
   32.5708,      1644,
   32.5911,      1607,
   32.6114,      1579,
   32.6316,      1620,
   32.6519,      1630,
   32.6722,      1661,
   32.6925,      1612,
   32.7128,      1556,
    32.733,      1626,
   32.7533,      1548,
   32.7736,      1570,
   32.7939,      1635,
   32.8142,      1592,
   32.8344,      1636,
   32.8547,      1571,
    32.875,      1588,
   32.8953,      1596,
   32.9156,      1513,
   32.9358,      1553,
   32.9561,      1564,
   32.9764,      1580,
   32.9967,      1562,
   33.0169,      1592,
   33.0372,      1540,
   33.0575,      1580,
   33.0778,      1602,
   33.0981,      1641,
   33.1183,      1580,
   33.1386,      1586,
   33.1589,      1566,
   33.1792,      1584,
   33.1995,      1542,
   33.2197,      1568,
     33.24,      1560,
   33.2603,      1563,
   33.2806,      1650,
   33.3009,      1641,
   33.3211,      1587,
   33.3414,      1592,
   33.3617,      1596,
    33.382,      1533,
   33.4022,      1546,
   33.4225,      1609,
   33.4428,      1624,
   33.4631,      1572,
   33.4834,      1572,
   33.5036,      1625,
   33.5239,      1569,
   33.5442,      1736,
   33.5645,      1554,
   33.5848,      1597,
    33.605,      1619,
   33.6253,      1568,
   33.6456,      1553,
   33.6659,      1535,
   33.6862,      1576,
   33.7064,      1668,
   33.7267,      1579,
    33.747,      1573,
   33.7673,      1486,
   33.7875,      1550,
   33.8078,      1526,
   33.8281,      1512,
   33.8484,      1566,
   33.8687,      1519,
   33.8889,      1591,
   33.9092,      1515,
   33.9295,      1614,
   33.9498,      1620,
   33.9701,      1585,
   33.9903,      1549,
   34.0106,      1593,
   34.0309,      1504,
   34.0512,      1604,
   34.0715,      1551,
   34.0917,      1644,
    34.112,      1494,
   34.1323,      1548,
   34.1526,      1604,
   34.1728,      1572,
   34.1931,      1536,
   34.2134,      1615,
   34.2337,      1549,
    34.254,      1523,
   34.2742,      1602,
   34.2945,      1625,
   34.3148,      1541,
   34.3351,      1508,
   34.3554,      1514,
   34.3756,      1588,
   34.3959,      1597,
   34.4162,      1575,
   34.4365,      1579,
   34.4568,      1541,
    34.477,      1573,
   34.4973,      1636,
   34.5176,      1618,
   34.5379,      1589,
   34.5581,      1556,
   34.5784,      1545,
   34.5987,      1584,
    34.619,      1547,
   34.6393,      1507,
   34.6595,      1512,
   34.6798,      1583,
   34.7001,      1531,
   34.7204,      1570,
   34.7407,      1561,
   34.7609,      1572,
   34.7812,      1540,
   34.8015,      1649,
   34.8218,      1568,
   34.8421,      1502,
   34.8623,      1604,
   34.8826,      1520,
   34.9029,      1558,
   34.9232,      1503,
   34.9434,      1538,
   34.9637,      1554,
    34.984,      1632,
   35.0043,      1558,
   35.0246,      1559,
   35.0448,      1584,
   35.0651,      1568,
   35.0854,      1517,
   35.1057,      1563,
    35.126,      1540,
   35.1462,      1586,
   35.1665,      1551,
   35.1868,      1564,
   35.2071,      1620,
   35.2274,      1518,
   35.2476,      1564,
   35.2679,      1574,
   35.2882,      1579,
   35.3085,      1511,
   35.3288,      1538,
    35.349,      1570,
   35.3693,      1611,
   35.3896,      1542,
   35.4099,      1580,
   35.4301,      1531,
   35.4504,      1598,
   35.4707,      1584,
    35.491,      1575,
   35.5113,      1559,
   35.5315,      1552,
   35.5518,      1638,
   35.5721,      1524,
   35.5924,      1593,
   35.6127,      1536,
   35.6329,      1607,
   35.6532,      1554,
   35.6735,      1515,
   35.6938,      1512,
   35.7141,      1585,
   35.7343,      1533,
   35.7546,      1558,
   35.7749,      1565,
   35.7952,      1558,
   35.8154,      1655,
   35.8357,      1557,
    35.856,      1620,
   35.8763,      1605,
   35.8966,      1580,
   35.9168,      1568,
   35.9371,      1608,
   35.9574,      1595,
   35.9777,      1579,
    35.998,      1570,
   36.0182,      1549,
   36.0385,      1509,
   36.0588,      1570,
   36.0791,      1547,
   36.0994,      1564,
   36.1196,      1587,
   36.1399,      1555,
   36.1602,      1564,
   36.1805,      1519,
   36.2007,      1557,
    36.221,      1585,
   36.2413,      1625,
   36.2616,      1599,
   36.2819,      1675,
   36.3021,      1648,
   36.3224,      1600,
   36.3427,      1616,
    36.363,      1693,
   36.3833,      1588,
   36.4035,      1659,
   36.4238,      1635,
   36.4441,      1625,
   36.4644,      1585,
   36.4847,      1608,
   36.5049,      1645,
   36.5252,      1722,
   36.5455,      1741,
   36.5658,      1812,
    36.586,      1723,
   36.6063,      1757,
   36.6266,      1925,
   36.6469,      1965,
   36.6672,      2131,
   36.6874,      2526,
   36.7077,      3062,
    36.728,      3834,
   36.7483,      4825,
   36.7686,      5528,
   36.7888,      5698,
   36.8091,      5373,
   36.8294,      4794,
   36.8497,      4285,
     36.87,      4100,
   36.8902,      3607,
   36.9105,      3177,
   36.9308,      2616,
   36.9511,      2108,
   36.9713,      1906,
   36.9916,      1721,
   37.0119,      1778,
   37.0322,      1643,
   37.0525,      1638,
   37.0727,      1707,
    37.093,      1622,
   37.1133,      1667,
   37.1336,      1613,
   37.1539,      1571,
   37.1741,      1566,
   37.1944,      1679,
   37.2147,      1546,
    37.235,      1559,
   37.2553,      1548,
   37.2755,      1561,
   37.2958,      1580,
   37.3161,      1538,
   37.3364,      1646,
   37.3566,      1571,
   37.3769,      1530,
   37.3972,      1639,
   37.4175,      1575,
   37.4378,      1561,
    37.458,      1477,
   37.4783,      1533,
   37.4986,      1569,
   37.5189,      1572,
   37.5392,      1644,
   37.5594,      1576,
   37.5797,      1529,
      37.6,      1592,
   37.6203,      1628,
   37.6406,      1542,
   37.6608,      1534,
   37.6811,      1593,
   37.7014,      1611,
   37.7217,      1554,
   37.7419,      1610,
   37.7622,      1576,
   37.7825,      1549,
   37.8028,      1532,
   37.8231,      1539,
   37.8433,      1618,
   37.8636,      1542,
   37.8839,      1589,
   37.9042,      1604,
   37.9245,      1570,
   37.9447,      1570,
    37.965,      1570,
   37.9853,      1609,
   38.0056,      1566,
   38.0259,      1576,
   38.0461,      1696,
   38.0664,      1674,
   38.0867,      1846,
    38.107,      2000,
   38.1272,      2121,
   38.1475,      2019,
   38.1678,      2119,
   38.1881,      1949,
   38.2084,      1899,
   38.2286,      1855,
   38.2489,      1844,
   38.2692,      1864,
   38.2895,      1738,
   38.3098,      1750,
     38.33,      1885,
   38.3503,      1904,
   38.3706,      2095,
   38.3909,      2412,
   38.4112,      2667,
   38.4314,      2877,
   38.4517,      3066,
    38.472,      2804,
   38.4923,      2609,
   38.5125,      2550,
   38.5328,      2381,
   38.5531,      2411,
   38.5734,      2173,
   38.5937,      1950,
   38.6139,      1756,
   38.6342,      1636,
   38.6545,      1716,
   38.6748,      1637,
   38.6951,      1623,
   38.7153,      1594,
   38.7356,      1626,
   38.7559,      1594,
   38.7762,      1537,
   38.7965,      1608,
   38.8167,      1617,
    38.837,      1514,
   38.8573,      1553,
   38.8776,      1578,
   38.8979,      1600,
   38.9181,      1609,
   38.9384,      1527,
   38.9587,      1596,
    38.979,      1552,
   38.9992,      1531,
   39.0195,      1584,
   39.0398,      1554,
   39.0601,      1547,
   39.0804,      1545,
   39.1006,      1532,
   39.1209,      1583,
   39.1412,      1635,
   39.1615,      1566,
   39.1818,      1615,
    39.202,      1552,
   39.2223,      1554,
   39.2426,      1604,
   39.2629,      1571,
   39.2832,      1585,
   39.3034,      1652,
   39.3237,      1517,
    39.344,      1597,
   39.3643,      1537,
   39.3845,      1586,
   39.4048,      1557,
   39.4251,      1561,
   39.4454,      1671,
   39.4657,      1643,
   39.4859,      1596,
   39.5062,      1467,
   39.5265,      1575,
   39.5468,      1572,
   39.5671,      1515,
   39.5873,      1521,
   39.6076,      1539,
   39.6279,      1483,
   39.6482,      1552,
   39.6685,      1580,
   39.6887,      1600,
    39.709,      1553,
   39.7293,      1590,
   39.7496,      1611,
   39.7698,      1511,
   39.7901,      1594,
   39.8104,      1553,
   39.8307,      1601,
    39.851,      1560,
   39.8712,      1595,
   39.8915,      1607,
   39.9118,      1521,
   39.9321,      1533,
   39.9524,      1568,
   39.9726,      1561,
   39.9929,      1539,
   40.0132,      1558,
   40.0335,      1604,
   40.0538,      1537,
    40.074,      1501,
   40.0943,      1586,
   40.1146,      1631,
   40.1349,      1568,
   40.1551,      1583,
   40.1754,      1608,
   40.1957,      1577,
    40.216,      1616,
   40.2363,      1519,
   40.2565,      1503,
   40.2768,      1542,
   40.2971,      1599,
   40.3174,      1596,
   40.3377,      1607,
   40.3579,      1569,
   40.3782,      1580,
   40.3985,      1562,
   40.4188,      1480,
   40.4391,      1574,
   40.4593,      1544,
   40.4796,      1559,
   40.4999,      1584,
   40.5202,      1544,
   40.5404,      1562,
   40.5607,      1571,
    40.581,      1592,
   40.6013,      1577,
   40.6216,      1602,
   40.6418,      1590,
   40.6621,      1529,
   40.6824,      1541,
   40.7027,      1604,
    40.723,      1626,
   40.7432,      1572,
   40.7635,      1613,
   40.7838,      1556,
   40.8041,      1566,
   40.8244,      1536,
   40.8446,      1520,
   40.8649,      1510,
   40.8852,      1570,
   40.9055,      1532,
   40.9257,      1614,
    40.946,      1572,
   40.9663,      1590,
   40.9866,      1620,
   41.0069,      1554,
   41.0271,      1507,
   41.0474,      1559,
   41.0677,      1565,
    41.088,      1567,
   41.1083,      1517,
   41.1285,      1634,
   41.1488,      1628,
   41.1691,      1568,
   41.1894,      1614,
   41.2097,      1549,
   41.2299,      1567,
   41.2502,      1581,
   41.2705,      1534,
   41.2908,      1596,
    41.311,      1507,
   41.3313,      1547,
   41.3516,      1567,
   41.3719,      1550,
   41.3922,      1517,
   41.4124,      1559,
   41.4327,      1586,
    41.453,      1548,
   41.4733,      1512,
   41.4936,      1569,
   41.5138,      1572,
   41.5341,      1609,
   41.5544,      1611,
   41.5747,      1573,
    41.595,      1525,
   41.6152,      1535,
   41.6355,      1564,
   41.6558,      1571,
   41.6761,      1657,
   41.6963,      1533,
   41.7166,      1530,
   41.7369,      1523,
   41.7572,      1541,
   41.7775,      1574,
   41.7977,      1539,
    41.818,      1641,
   41.8383,      1529,
   41.8586,      1588,
   41.8789,      1559,
   41.8991,      1554,
   41.9194,      1541,
   41.9397,      1599,
     41.96,      1554,
   41.9803,      1579,
   42.0005,      1517,
   42.0208,      1556,
   42.0411,      1577,
   42.0614,      1593,
   42.0816,      1540,
   42.1019,      1586,
   42.1222,      1553,
   42.1425,      1626,
   42.1628,      1619,
    42.183,      1511,
   42.2033,      1573,
   42.2236,      1486,
   42.2439,      1550,
   42.2642,      1537,
   42.2844,      1558,
   42.3047,      1619,
    42.325,      1537,
   42.3453,      1635,
   42.3656,      1617,
   42.3858,      1605,
   42.4061,      1548,
   42.4264,      1587,
   42.4467,      1609,
    42.467,      1551,
   42.4872,      1544,
   42.5075,      1558,
   42.5278,      1589,
   42.5481,      1465,
   42.5683,      1560,
   42.5886,      1456,
   42.6089,      1521,
   42.6292,      1606,
   42.6495,      1572,
   42.6697,      1621,
     42.69,      1588,
   42.7103,      1600,
   42.7306,      1506,
   42.7509,      1598,
   42.7711,      1567,
   42.7914,      1567,
   42.8117,      1585,
    42.832,      1608,
   42.8523,      1632,
   42.8725,      1568,
   42.8928,      1551,
   42.9131,      1542,
   42.9334,      1629,
   42.9536,      1552,
   42.9739,      1600,
   42.9942,      1629,
   43.0145,      1607,
   43.0348,      1622,
    43.055,      1569,
   43.0753,      1581,
   43.0956,      1537,
   43.1159,      1588,
   43.1362,      1589,
   43.1564,      1565,
   43.1767,      1549,
    43.197,      1537,
   43.2173,      1570,
   43.2376,      1504,
   43.2578,      1550,
   43.2781,      1605,
   43.2984,      1558,
   43.3187,      1623,
   43.3389,      1595,
   43.3592,      1592,
   43.3795,      1643,
   43.3998,      1552,
   43.4201,      1556,
   43.4403,      1607,
   43.4606,      1633,
   43.4809,      1639,
   43.5012,      1634,
   43.5215,      1576,
   43.5417,      1584,
    43.562,      1563,
   43.5823,      1567,
   43.6026,      1539,
   43.6229,      1563,
   43.6431,      1596,
   43.6634,      1610,
   43.6837,      1604,
    43.704,      1553,
   43.7242,      1555,
   43.7445,      1579,
   43.7648,      1590,
   43.7851,      1575,
   43.8054,      1544,
   43.8256,      1566,
   43.8459,      1618,
   43.8662,      1644,
   43.8865,      1581,
   43.9068,      1562,
    43.927,      1574,
   43.9473,      1537,
   43.9676,      1588,
   43.9879,      1634,
   44.0082,      1656,
   44.0284,      1592,
   44.0487,      1582,
    44.069,      1633,
   44.0893,      1742,
   44.1095,      1648,
   44.1298,      1706,
   44.1501,      1686,
   44.1704,      1681,
   44.1907,      1758,
   44.2109,      1724,
   44.2312,      1836,
   44.2515,      1895,
   44.2718,      1771,
   44.2921,      1796,
   44.3123,      1903,
   44.3326,      1964,
   44.3529,      1965,
   44.3732,      2040,
   44.3935,      2185,
   44.4137,      2482,
    44.434,      2686,
   44.4543,      3137,
   44.4746,      3966,
   44.4948,      5226,
   44.5151,      6439,
   44.5354,      7898,
   44.5557,      9147,
    44.576,      9312,
   44.5962,      8797,
   44.6165,      7712,
   44.6368,      7002,
   44.6571,      6319,
   44.6774,      6184,
   44.6976,      5718,
   44.7179,      4848,
   44.7382,      3944,
   44.7585,      3012,
   44.7788,      2485,
    44.799,      2290,
   44.8193,      2039,
   44.8396,      1907,
   44.8599,      1872,
   44.8801,      1769,
   44.9004,      1718,
   44.9207,      1698,
    44.941,      1655,
   44.9613,      1691,
   44.9815,      1712,
   45.0018,      1664,
   45.0221,      1635,
   45.0424,      1598,
   45.0627,      1594,
   45.0829,      1656,
   45.1032,      1596,
   45.1235,      1582,
   45.1438,      1616,
   45.1641,      1596,
   45.1843,      1581,
   45.2046,      1624,
   45.2249,      1559,
   45.2452,      1601,
   45.2654,      1660,
   45.2857,      1560,
    45.306,      1586,
   45.3263,      1605,
   45.3466,      1610,
   45.3668,      1567,
   45.3871,      1596,
   45.4074,      1692,
   45.4277,      1620,
    45.448,      1553,
   45.4682,      1589,
   45.4885,      1582,
   45.5088,      1541,
   45.5291,      1547,
   45.5494,      1545,
   45.5696,      1555,
   45.5899,      1621,
   45.6102,      1588,
   45.6305,      1621,
   45.6508,      1503,
    45.671,      1623,
   45.6913,      1580,
   45.7116,      1583,
   45.7319,      1591,
   45.7521,      1505,
   45.7724,      1523,
   45.7927,      1589,
    45.813,      1524,
   45.8333,      1578,
   45.8535,      1625,
   45.8738,      1576,
   45.8941,      1584,
   45.9144,      1511,
   45.9347,      1583,
   45.9549,      1564,
   45.9752,      1604,
   45.9955,      1478,
   46.0158,      1541,
   46.0361,      1525,
   46.0563,      1618,
   46.0766,      1552,
   46.0969,      1598,
   46.1172,      1559,
   46.1374,      1522,
   46.1577,      1623,
    46.178,      1553,
   46.1983,      1538,
   46.2186,      1576,
   46.2388,      1549,
   46.2591,      1551,
   46.2794,      1540,
   46.2997,      1578,
     46.32,      1565,
   46.3402,      1585,
   46.3605,      1507,
   46.3808,      1560,
   46.4011,      1588,
   46.4214,      1543,
   46.4416,      1574,
   46.4619,      1504,
   46.4822,      1537,
   46.5025,      1516,
   46.5227,      1514,
    46.543,      1530,
   46.5633,      1600,
   46.5836,      1510,
   46.6039,      1532,
   46.6241,      1550,
   46.6444,      1594,
   46.6647,      1537,
    46.685,      1560,
   46.7053,      1535,
   46.7255,      1577,
   46.7458,      1612,
   46.7661,      1604,
   46.7864,      1536,
   46.8067,      1553,
   46.8269,      1496,
   46.8472,      1490,
   46.8675,      1516,
   46.8878,      1548,
    46.908,      1545,
   46.9283,      1500,
   46.9486,      1531,
   46.9689,      1575,
   46.9892,      1611,
   47.0094,      1490,
   47.0297,      1533,
     47.05,      1639,
   47.0703,      1532,
   47.0906,      1546,
   47.1108,      1513,
   47.1311,      1606,
   47.1514,      1553,
   47.1717,      1568,
    47.192,      1532,
   47.2122,      1545,
   47.2325,      1594,
   47.2528,      1580,
   47.2731,      1538,
   47.2933,      1547,
   47.3136,      1609,
   47.3339,      1512,
   47.3542,      1590,
   47.3745,      1568,
   47.3947,      1530,
    47.415,      1571,
   47.4353,      1541,
   47.4556,      1504,
   47.4759,      1556,
   47.4961,      1576,
   47.5164,      1555,
   47.5367,      1525,
    47.557,      1555,
   47.5773,      1544,
   47.5975,      1532,
   47.6178,      1639,
   47.6381,      1540,
   47.6584,      1594,
   47.6786,      1588,
   47.6989,      1544,
   47.7192,      1540,
   47.7395,      1553,
   47.7598,      1564,
     47.78,      1621,
   47.8003,      1554,
   47.8206,      1584,
   47.8409,      1490,
   47.8612,      1636,
   47.8814,      1567,
   47.9017,      1550,
    47.922,      1548,
   47.9423,      1528,
   47.9626,      1526,
   47.9828,      1485,
   48.0031,      1552,
   48.0234,      1586,
   48.0437,      1604,
   48.0639,      1477,
   48.0842,      1555,
   48.1045,      1499,
   48.1248,      1535,
   48.1451,      1543,
   48.1653,      1524,
   48.1856,      1597,
   48.2059,      1543,
   48.2262,      1505,
   48.2465,      1603,
   48.2667,      1561,
    48.287,      1547,
   48.3073,      1543,
   48.3276,      1584,
   48.3479,      1542,
   48.3681,      1565,
   48.3884,      1518,
   48.4087,      1598,
    48.429,      1592,
   48.4492,      1588,
   48.4695,      1567,
   48.4898,      1594,
   48.5101,      1566,
   48.5304,      1609,
   48.5506,      1640,
   48.5709,      1598,
   48.5912,      1615,
   48.6115,      1643,
   48.6318,      1719,
    48.652,      1841,
   48.6723,      1979,
   48.6926,      2183,
   48.7129,      2365,
   48.7332,      2659,
   48.7534,      2606,
   48.7737,      2569,
    48.794,      2350,
   48.8143,      2244,
   48.8345,      2224,
   48.8548,      2113,
   48.8751,      2090,
   48.8954,      2094,
   48.9157,      1935,
   48.9359,      1832,
   48.9562,      1716,
   48.9765,      1686,
   48.9968,      1591,
   49.0171,      1565,
   49.0373,      1572,
   49.0576,      1581,
   49.0779,      1643,
   49.0982,      1516,
   49.1185,      1532,
   49.1387,      1602,
    49.159,      1515,
   49.1793,      1630,
   49.1996,      1499,
   49.2199,      1591,
   49.2401,      1454,
   49.2604,      1651,
   49.2807,      1540,
    49.301,      1587,
   49.3212,      1561,
   49.3415,      1519,
   49.3618,      1536,
   49.3821,      1499,
   49.4024,      1579,
   49.4226,      1518,
   49.4429,      1566,
   49.4632,      1542,
   49.4835,      1489,
   49.5038,      1527,
    49.524,      1411,
   49.5443,      1550,
   49.5646,      1567,
   49.5849,      1528,
   49.6052,      1604,
   49.6254,      1512,
   49.6457,      1556,
    49.666,      1504,
   49.6863,      1599,
   49.7065,      1529,
   49.7268,      1532,
   49.7471,      1504,
   49.7674,      1488,
   49.7877,      1496,
   49.8079,      1538,
   49.8282,      1502,
   49.8485,      1572,
   49.8688,      1482,
   49.8891,      1643,
   49.9093,      1600,
   49.9296,      1497,
   49.9499,      1532,
   49.9702,      1535,
   49.9905,      1560,
   50.0107,      1472,
    50.031,      1507,
   50.0513,      1564,
   50.0716,      1551,
   50.0918,      1543,
   50.1121,      1459,
   50.1324,      1547,
   50.1527,      1523,
    50.173,      1538,
   50.1932,      1543,
   50.2135,      1503,
   50.2338,      1543,
   50.2541,      1547,
   50.2744,      1540,
   50.2946,      1562,
   50.3149,      1471,
   50.3352,      1493,
   50.3555,      1539,
   50.3758,      1602,
    50.396,      1506,
   50.4163,      1551,
   50.4366,      1483,
   50.4569,      1541,
   50.4771,      1538,
   50.4974,      1502,
   50.5177,      1517,
    50.538,      1515,
   50.5583,      1587,
   50.5785,      1532,
   50.5988,      1519,
   50.6191,      1505,
   50.6394,      1530,
   50.6597,      1520,
   50.6799,      1533,
   50.7002,      1537,
   50.7205,      1515,
   50.7408,      1430,
   50.7611,      1536,
   50.7813,      1540,
   50.8016,      1593,
   50.8219,      1486,
   50.8422,      1478,
   50.8624,      1481,
   50.8827,      1522,
    50.903,      1547,
   50.9233,      1536,
   50.9436,      1507,
   50.9638,      1534,
   50.9841,      1570,
   51.0044,      1493,
   51.0247,      1590,
    51.045,      1542,
   51.0652,      1617,
   51.0855,      1497,
   51.1058,      1477,
   51.1261,      1475,
   51.1464,      1524,
   51.1666,      1487,
   51.1869,      1566,
   51.2072,      1515,
   51.2275,      1574,
   51.2477,      1579,
    51.268,      1563,
   51.2883,      1419,
   51.3086,      1473,
   51.3289,      1551,
   51.3491,      1548,
   51.3694,      1510,
   51.3897,      1434,
     51.41,      1553,
   51.4303,      1584,
   51.4505,      1567,
   51.4708,      1460,
   51.4911,      1460,
   51.5114,      1553,
   51.5317,      1545,
   51.5519,      1577,
   51.5722,      1579,
   51.5925,      1603,
   51.6128,      1522,
    51.633,      1436,
   51.6533,      1504,
   51.6736,      1559,
   51.6939,      1505,
   51.7142,      1502,
   51.7344,      1520,
   51.7547,      1549,
    51.775,      1461,
   51.7953,      1480,
   51.8156,      1511,
   51.8358,      1558,
   51.8561,      1557,
   51.8764,      1523,
   51.8967,      1525,
    51.917,      1500,
   51.9372,      1500,
   51.9575,      1521,
   51.9778,      1547,
   51.9981,      1519,
   52.0183,      1438,
   52.0386,      1488,
   52.0589,      1563,
   52.0792,      1481,
   52.0995,      1542,
   52.1197,      1580,
     52.14,      1531,
   52.1603,      1545,
   52.1806,      1493,
   52.2009,      1499,
   52.2211,      1580,
   52.2414,      1494,
   52.2617,      1523,
    52.282,      1521,
   52.3023,      1497,
   52.3225,      1570,
   52.3428,      1544,
   52.3631,      1499,
   52.3834,      1530,
   52.4036,      1530,
   52.4239,      1490,
   52.4442,      1613,
   52.4645,      1544,
   52.4848,      1479,
    52.505,      1596,
   52.5253,      1564,
   52.5456,      1549,
   52.5659,      1518,
   52.5862,      1510,
   52.6064,      1493,
   52.6267,      1542,
    52.647,      1492,
   52.6673,      1532,
   52.6876,      1475,
   52.7078,      1461,
   52.7281,      1493,
   52.7484,      1507,
   52.7687,      1501,
    52.789,      1540,
   52.8092,      1621,
   52.8295,      1535,
   52.8498,      1546,
   52.8701,      1593,
   52.8903,      1526,
   52.9106,      1481,
   52.9309,      1543,
   52.9512,      1511,
   52.9715,      1457,
   52.9917,      1533,
    53.012,      1537,
   53.0323,      1551,
   53.0526,      1492,
   53.0729,      1520,
   53.0931,      1527,
   53.1134,      1522,
   53.1337,      1532,
    53.154,      1529,
   53.1743,      1572,
   53.1945,      1494,
   53.2148,      1521,
   53.2351,      1595,
   53.2554,      1539,
   53.2756,      1559,
   53.2959,      1559,
   53.3162,      1552,
   53.3365,      1562,
   53.3568,      1543,
    53.377,      1468,
   53.3973,      1523,
   53.4176,      1564,
   53.4379,      1536,
   53.4582,      1513,
   53.4784,      1444,
   53.4987,      1553,
    53.519,      1473,
   53.5393,      1507,
   53.5596,      1591,
   53.5798,      1502,
   53.6001,      1533,
   53.6204,      1580,
   53.6407,      1466,
   53.6609,      1484,
   53.6812,      1444,
   53.7015,      1579,
   53.7218,      1498,
   53.7421,      1530,
   53.7623,      1459,
   53.7826,      1460,
   53.8029,      1521,
   53.8232,      1504,
   53.8435,      1561,
   53.8637,      1521,
    53.884,      1558,
   53.9043,      1548,
   53.9246,      1501,
   53.9449,      1480,
   53.9651,      1499,
   53.9854,      1541,
   54.0057,      1572,
    54.026,      1512,
   54.0462,      1494,
   54.0665,      1468,
   54.0868,      1516,
   54.1071,      1531,
   54.1274,      1574,
   54.1476,      1490,
   54.1679,      1496,
   54.1882,      1526,
   54.2085,      1498,
   54.2288,      1516,
    54.249,      1579,
   54.2693,      1511,
   54.2896,      1569,
   54.3099,      1517,
   54.3302,      1476,
   54.3504,      1499,
   54.3707,      1535,
    54.391,      1543,
   54.4113,      1457,
   54.4315,      1508,
   54.4518,      1473,
   54.4721,      1476,
   54.4924,      1490,
   54.5127,      1563,
   54.5329,      1510,
   54.5532,      1461,
   54.5735,      1506,
   54.5938,      1453,
   54.6141,      1504,
   54.6343,      1519,
   54.6546,      1533,
   54.6749,      1558,
   54.6952,      1526,
   54.7155,      1469,
   54.7357,      1521,
    54.756,      1522,
   54.7763,      1584,
   54.7966,      1475,
   54.8168,      1555,
   54.8371,      1492,
   54.8574,      1508,
   54.8777,      1572,
    54.898,      1562,
   54.9182,      1498,
   54.9385,      1461,
   54.9588,      1580,
   54.9791,      1592,
   54.9994,      1455,
   55.0196,      1499,
   55.0399,      1479,
   55.0602,      1509,
   55.0805,      1544,
   55.1008,      1535,
    55.121,      1502,
   55.1413,      1516,
   55.1616,      1486,
   55.1819,      1501,
   55.2021,      1532,
   55.2224,      1508,
   55.2427,      1537,
    55.263,      1514,
   55.2833,      1449,
   55.3035,      1537,
   55.3238,      1555,
   55.3441,      1541,
   55.3644,      1526,
   55.3847,      1501,
   55.4049,      1499,
   55.4252,      1508,
   55.4455,      1470,
   55.4658,      1576,
   55.4861,      1519,
   55.5063,      1446,
   55.5266,      1451,
   55.5469,      1458,
   55.5672,      1533,
   55.5874,      1497,
   55.6077,      1530,
    55.628,      1519,
   55.6483,      1561,
   55.6686,      1534,
   55.6888,      1505,
   55.7091,      1538,
   55.7294,      1553,
   55.7497,      1472,
     55.77,      1524,
   55.7902,      1496,
   55.8105,      1546,
   55.8308,      1490,
   55.8511,      1548,
   55.8714,      1459,
   55.8916,      1525,
   55.9119,      1459,
   55.9322,      1422,
   55.9525,      1514,
   55.9728,      1496,
    55.993,      1476,
   56.0133,      1524,
   56.0336,      1604,
   56.0539,      1526,
   56.0741,      1433,
   56.0944,      1488,
   56.1147,      1530,
    56.135,      1525,
   56.1553,      1594,
   56.1755,      1510,
   56.1958,      1568,
   56.2161,      1467,
   56.2364,      1526,
   56.2567,      1520,
   56.2769,      1554,
   56.2972,      1630,
   56.3175,      1528,
   56.3378,      1488,
   56.3581,      1486,
   56.3783,      1505,
   56.3986,      1600,
   56.4189,      1554,
   56.4392,      1460,
   56.4594,      1506,
   56.4797,      1465,
      56.5,      1466,
   56.5203,      1515,
   56.5406,      1561,
   56.5608,      1511,
   56.5811,      1521,
   56.6014,      1497,
   56.6217,      1507,
    56.642,      1538,
   56.6622,      1508,
   56.6825,      1521,
   56.7028,      1479,
   56.7231,      1485,
   56.7434,      1462,
   56.7636,      1445,
   56.7839,      1516,
   56.8042,      1511,
   56.8245,      1514,
   56.8447,      1528,
    56.865,      1443,
   56.8853,      1491,
   56.9056,      1549,
   56.9259,      1544,
   56.9461,      1516,
   56.9664,      1517,
   56.9867,      1463,
    57.007,      1534,
   57.0273,      1533,
   57.0475,      1483,
   57.0678,      1484,
   57.0881,      1565,
   57.1084,      1479,
   57.1287,      1567,
   57.1489,      1491,
   57.1692,      1556,
   57.1895,      1545,
   57.2098,      1541,
     57.23,      1550,
   57.2503,      1573,
   57.2706,      1481,
   57.2909,      1507,
   57.3112,      1421,
   57.3314,      1502,
   57.3517,      1528,
    57.372,      1554,
   57.3923,      1475,
   57.4126,      1539,
   57.4328,      1508,
   57.4531,      1549,
   57.4734,      1545,
   57.4937,      1537,
    57.514,      1521,
   57.5342,      1513,
   57.5545,      1567,
   57.5748,      1600,
   57.5951,      1589,
   57.6153,      1516,
   57.6356,      1589,
   57.6559,      1507,
   57.6762,      1543,
   57.6965,      1494,
   57.7167,      1532,
    57.737,      1491,
   57.7573,      1493,
   57.7776,      1528,
   57.7979,      1516,
   57.8181,      1522,
   57.8384,      1554,
   57.8587,      1495,
    57.879,      1489,
   57.8993,      1503,
   57.9195,      1593,
   57.9398,      1485,
   57.9601,      1519,
   57.9804,      1537,
   58.0006,      1506,
   58.0209,      1481,
   58.0412,      1503,
   58.0615,      1512,
   58.0818,      1617,
    58.102,      1510,
   58.1223,      1472,
   58.1426,      1526,
   58.1629,      1598,
   58.1832,      1544,
   58.2034,      1578,
   58.2237,      1613,
    58.244,      1512,
   58.2643,      1561,
   58.2846,      1556,
   58.3048,      1527,
   58.3251,      1618,
   58.3454,      1526,
   58.3657,      1587,
   58.3859,      1511,
   58.4062,      1483,
   58.4265,      1570,
   58.4468,      1547,
   58.4671,      1539,
   58.4873,      1621,
   58.5076,      1635,
   58.5279,      1594,
   58.5482,      1708,
   58.5685,      1672,
   58.5887,      1776,
    58.609,      1727,
   58.6293,      1746,
   58.6496,      1785,
   58.6699,      1780,
   58.6901,      1848,
   58.7104,      1935,
   58.7307,      2010,
    58.751,      2202,
   58.7712,      2324,
   58.7915,      2564,
   58.8118,      2568,
   58.8321,      2454,
   58.8524,      2388,
   58.8726,      2343,
   58.8929,      2095,
   58.9132,      2140,
   58.9335,      2041,
   58.9538,      2160,
    58.974,      2012,
   58.9943,      1983,
   59.0146,      1875,
   59.0349,      1831,
   59.0552,      1724,
   59.0754,      1597,
   59.0957,      1655,
    59.116,      1575,
   59.1363,      1575,
   59.1565,      1514,
   59.1768,      1519,
   59.1971,      1560,
   59.2174,      1507,
   59.2377,      1589,
   59.2579,      1550,
   59.2782,      1524,
   59.2985,      1487,
   59.3188,      1538,
   59.3391,      1567,
   59.3593,      1576,
   59.3796,      1501,
   59.3999,      1464,
   59.4202,      1447,
   59.4405,      1573,
   59.4607,      1481,
    59.481,      1556,
   59.5013,      1565,
   59.5216,      1494,
   59.5419,      1505,
   59.5621,      1473,
   59.5824,      1550,
   59.6027,      1515,
    59.623,      1503,
   59.6432,      1484,
   59.6635,      1548,
   59.6838,      1550,
   59.7041,      1512,
   59.7244,      1499,
   59.7446,      1565,
   59.7649,      1568,
   59.7852,      1523,
   59.8055,      1474,
   59.8258,      1525,
    59.846,      1438,
   59.8663,      1536,
   59.8866,      1500,
   59.9069,      1504,
   59.9272,      1496,
   59.9474,      1483,
   59.9677,      1590,
    59.988,      1484,
   60.0083,      1498,
   60.0285,      1524,
   60.0488,      1507,
   60.0691,      1508,
   60.0894,      1485,
   60.1097,      1545,
   60.1299,      1511,
   60.1502,      1560,
   60.1705,      1516,
   60.1908,      1559,
   60.2111,      1500,
   60.2313,      1500,
   60.2516,      1489,
   60.2719,      1494,
   60.2922,      1528,
   60.3125,      1465,
   60.3327,      1484,
    60.353,      1530,
   60.3733,      1577,
   60.3936,      1563,
   60.4138,      1543,
   60.4341,      1465,
   60.4544,      1478,
   60.4747,      1461,
    60.495,      1508,
   60.5152,      1561,
   60.5355,      1493,
   60.5558,      1496,
   60.5761,      1474,
   60.5964,      1515,
   60.6166,      1463,
   60.6369,      1513,
   60.6572,      1501,
   60.6775,      1504,
   60.6978,      1537,
    60.718,      1461,
   60.7383,      1525,
   60.7586,      1484,
   60.7789,      1551,
   60.7991,      1522,
   60.8194,      1515,
   60.8397,      1505,
     60.86,      1496,
   60.8803,      1553,
   60.9005,      1527,
   60.9208,      1537,
   60.9411,      1547,
   60.9614,      1532,
   60.9817,      1519,
   61.0019,      1547,
   61.0222,      1541,
   61.0425,      1471,
   61.0628,      1441,
   61.0831,      1506,
   61.1033,      1414,
   61.1236,      1482,
   61.1439,      1527,
   61.1642,      1532,
   61.1844,      1520,
   61.2047,      1538,
    61.225,      1555,
   61.2453,      1490,
   61.2656,      1530,
   61.2858,      1500,
   61.3061,      1568,
   61.3264,      1585,
   61.3467,      1607,
    61.367,      1510,
   61.3872,      1500,
   61.4075,      1493,
   61.4278,      1575,
   61.4481,      1515,
   61.4684,      1523,
   61.4886,      1516,
   61.5089,      1508,
   61.5292,      1549,
   61.5495,      1488,
   61.5697,      1503,
     61.59,      1610,
   61.6103,      1535,
   61.6306,      1525,
   61.6509,      1571,
   61.6711,      1526,
   61.6914,      1517,
   61.7117,      1412,
    61.732,      1565,
   61.7523,      1522,
   61.7725,      1470,
   61.7928,      1457,
   61.8131,      1532,
   61.8334,      1490,
   61.8537,      1522,
   61.8739,      1572,
   61.8942,      1495,
   61.9145,      1531,
   61.9348,      1409,
    61.955,      1611,
   61.9753,      1461,
   61.9956,      1539,
   62.0159,      1545,
   62.0362,      1468,
   62.0564,      1502,
   62.0767,      1484,
    62.097,      1442,
   62.1173,      1619,
   62.1376,      1556,
   62.1578,      1544,
   62.1781,      1439,
   62.1984,      1588,
   62.2187,      1495,
    62.239,      1498,
   62.2592,      1553,
   62.2795,      1495,
   62.2998,      1501,
   62.3201,      1455,
   62.3403,      1500,
   62.3606,      1575,
   62.3809,      1500,
   62.4012,      1498,
   62.4215,      1535,
   62.4417,      1526,
    62.462,      1486,
   62.4823,      1540,
   62.5026,      1502,
   62.5229,      1539,
   62.5431,      1570,
   62.5634,      1529,
   62.5837,      1569,
    62.604,      1488,
   62.6243,      1507,
   62.6445,      1464,
   62.6648,      1516,
   62.6851,      1571,
   62.7054,      1574,
   62.7256,      1555,
   62.7459,      1532,
   62.7662,      1510,
   62.7865,      1528,
   62.8068,      1532,
    62.827,      1519,
   62.8473,      1495,
   62.8676,      1535,
   62.8879,      1511,
   62.9082,      1535,
   62.9284,      1513,
   62.9487,      1552,
    62.969,      1493,
   62.9893,      1536,
   63.0096,      1607,
   63.0298,      1532,
   63.0501,      1460,
   63.0704,      1538,
   63.0907,      1531,
    63.111,      1500,
   63.1312,      1509,
   63.1515,      1499,
   63.1718,      1580,
   63.1921,      1556,
   63.2123,      1562,
   63.2326,      1510,
   63.2529,      1450,
   63.2732,      1469,
   63.2935,      1532,
   63.3137,      1480,
    63.334,      1501,
   63.3543,      1484,
   63.3746,      1506,
   63.3949,      1439,
   63.4151,      1557,
   63.4354,      1538,
   63.4557,      1506,
    63.476,      1593,
   63.4963,      1569,
   63.5165,      1470,
   63.5368,      1500,
   63.5571,      1551,
   63.5774,      1573,
   63.5976,      1462,
   63.6179,      1585,
   63.6382,      1497,
   63.6585,      1542,
   63.6788,      1591,
    63.699,      1521,
   63.7193,      1452,
   63.7396,      1488,
   63.7599,      1536,
   63.7802,      1446,
   63.8004,      1513,
   63.8207,      1511,
    63.841,      1595,
   63.8613,      1491,
   63.8816,      1455,
   63.9018,      1551,
   63.9221,      1490,
   63.9424,      1515,
   63.9627,      1496,
   63.9829,      1494,
   64.0032,      1542,
   64.0235,      1524,
   64.0438,      1631,
   64.0641,      1612,
   64.0843,      1449,
   64.1046,      1601,
   64.1249,      1556,
   64.1452,      1574,
   64.1655,      1559,
   64.1857,      1560,
    64.206,      1610,
   64.2263,      1586,
   64.2466,      1557,
   64.2669,      1566,
   64.2871,      1561,
   64.3074,      1636,
   64.3277,      1695,
    64.348,      1678,
   64.3682,      1637,
   64.3885,      1795,
   64.4088,      1748,
   64.4291,      1825,
   64.4494,      1950,
   64.4696,      2169,
   64.4899,      2371,
   64.5102,      2591,
   64.5305,      2889,
   64.5508,      2972,
    64.571,      3077,
   64.5913,      2910,
   64.6116,      2724,
   64.6319,      2564,
   64.6522,      2344,
   64.6724,      2278,
   64.6927,      2257,
    64.713,      2443,
   64.7333,      2447,
   64.7535,      2389,
   64.7738,      2414,
   64.7941,      2237,
   64.8144,      2031,
   64.8347,      2036,
   64.8549,      2106,
   64.8752,      2212,
   64.8955,      2413,
   64.9158,      2721,
   64.9361,      3081,
   64.9563,      3309,
   64.9766,      3182,
   64.9969,      3105,
   65.0172,      2683,
   65.0375,      2504,
   65.0577,      2346,
    65.078,      2205,
   65.0983,      2299,
   65.1186,      2349,
   65.1388,      2369,
   65.1591,      2440,
   65.1794,      2290,
   65.1997,      2143,
     65.22,      1985,
   65.2402,      1756,
   65.2605,      1700,
   65.2808,      1633,
   65.3011,      1583,
   65.3214,      1613,
   65.3416,      1602,
   65.3619,      1567,
   65.3822,      1568,
   65.4025,      1600,
   65.4228,      1565,
    65.443,      1580,
   65.4633,      1542,
   65.4836,      1595,
   65.5039,      1517,
   65.5241,      1521,
   65.5444,      1516,
   65.5647,      1531,
    65.585,      1557,
   65.6053,      1493,
   65.6255,      1609,
   65.6458,      1474,
   65.6661,      1488,
   65.6864,      1511,
   65.7067,      1518,
   65.7269,      1535,
   65.7472,      1578,
   65.7675,      1500,
   65.7878,      1493,
   65.8081,      1533,
   65.8283,      1519,
   65.8486,      1534,
   65.8689,      1551,
   65.8892,      1480,
   65.9094,      1452,
   65.9297,      1505,
     65.95,      1490,
   65.9703,      1534,
   65.9906,      1561,
   66.0108,      1580,
   66.0311,      1521,
   66.0514,      1544,
   66.0717,      1515,
    66.092,      1502,
   66.1122,      1521,
   66.1325,      1535,
   66.1528,      1514,
   66.1731,      1539,
   66.1934,      1467,
   66.2136,      1517,
   66.2339,      1543,
   66.2542,      1536,
   66.2745,      1601,
   66.2948,      1499,
    66.315,      1516,
   66.3353,      1520,
   66.3556,      1558,
   66.3759,      1606,
   66.3961,      1508,
   66.4164,      1538,
   66.4367,      1558,
    66.457,      1464,
   66.4773,      1573,
   66.4975,      1507,
   66.5178,      1504,
   66.5381,      1539,
   66.5584,      1476,
   66.5787,      1542,
   66.5989,      1509,
   66.6192,      1539,
   66.6395,      1550,
   66.6598,      1506,
   66.6801,      1573,
   66.7003,      1532,
   66.7206,      1494,
   66.7409,      1546,
   66.7612,      1535,
   66.7814,      1515,
   66.8017,      1520,
    66.822,      1494,
   66.8423,      1521,
   66.8626,      1556,
   66.8828,      1505,
   66.9031,      1561,
   66.9234,      1465,
   66.9437,      1565,
    66.964,      1469,
   66.9842,      1556,
   67.0045,      1512,
   67.0248,      1477,
   67.0451,      1543,
   67.0654,      1502,
   67.0856,      1541,
   67.1059,      1489,
   67.1262,      1476,
   67.1465,      1526,
   67.1667,      1504,
    67.187,      1515,
   67.2073,      1493,
   67.2276,      1572,
   67.2479,      1532,
   67.2681,      1574,
   67.2884,      1573,
   67.3087,      1505,
    67.329,      1522,
   67.3493,      1500,
   67.3695,      1593,
   67.3898,      1535,
   67.4101,      1606,
   67.4304,      1501,
   67.4507,      1516,
   67.4709,      1582,
   67.4912,      1528,
   67.5115,      1481,
   67.5318,      1546,
    67.552,      1532,
   67.5723,      1573,
   67.5926,      1524,
   67.6129,      1470,
   67.6332,      1550,
   67.6534,      1572,
   67.6737,      1517,
    67.694,      1504,
   67.7143,      1515,
   67.7346,      1571,
   67.7548,      1591,
   67.7751,      1570,
   67.7954,      1469,
   67.8157,      1529,
    67.836,      1547,
   67.8562,      1541,
   67.8765,      1520,
   67.8968,      1575,
   67.9171,      1537,
   67.9373,      1516,
   67.9576,      1607,
   67.9779,      1535,
   67.9982,      1542,
   68.0185,      1565,
   68.0387,      1533,
    68.059,      1608,
   68.0793,      1557,
   68.0996,      1649,
   68.1199,      1663,
   68.1401,      1633,
   68.1604,      1805,
   68.1807,      1837,
    68.201,      1934,
   68.2213,      2054,
   68.2415,      2255,
   68.2618,      2412,
   68.2821,      2470,
   68.3024,      2338,
   68.3226,      2307,
   68.3429,      2199,
   68.3632,      2012,
   68.3835,      1913,
   68.4038,      1977,
    68.424,      1944,
   68.4443,      1998,
   68.4646,      2047,
   68.4849,      2012,
   68.5052,      1919,
   68.5254,      1823,
   68.5457,      1776,
    68.566,      1689,
   68.5863,      1651,
   68.6066,      1568,
   68.6268,      1655,
   68.6471,      1553,
   68.6674,      1520,
   68.6877,      1562,
   68.7079,      1491,
   68.7282,      1516,
   68.7485,      1527,
   68.7688,      1543,
   68.7891,      1512,
   68.8093,      1533,
   68.8296,      1495,
   68.8499,      1520,
   68.8702,      1542,
   68.8905,      1495,
   68.9107,      1510,
    68.931,      1547,
   68.9513,      1515,
   68.9716,      1562,
   68.9919,      1510,
   69.0121,      1524,
   69.0324,      1533,
   69.0527,      1500,
    69.073,      1478,
   69.0932,      1512,
   69.1135,      1430,
   69.1338,      1484,
   69.1541,      1551,
   69.1744,      1546,
   69.1946,      1516,
   69.2149,      1532,
   69.2352,      1490,
   69.2555,      1485,
   69.2758,      1543,
    69.296,      1537,
   69.3163,      1465,
   69.3366,      1545,
   69.3569,      1495,
   69.3772,      1520,
   69.3974,      1500,
   69.4177,      1556,
    69.438,      1522,
   69.4583,      1534,
   69.4785,      1513,
   69.4988,      1470,
   69.5191,      1483,
   69.5394,      1482,
   69.5597,      1523,
   69.5799,      1544,
   69.6002,      1450,
   69.6205,      1479,
   69.6408,      1523,
   69.6611,      1586,
   69.6813,      1474,
   69.7016,      1514,
   69.7219,      1467,
   69.7422,      1561,
   69.7625,      1462,
   69.7827,      1516,
    69.803,      1556,
   69.8233,      1477,
   69.8436,      1530,
   69.8639,      1525,
   69.8841,      1500,
   69.9044,      1516,
   69.9247,      1541,
    69.945,      1559,
   69.9652,      1542,
   69.9855,      1448,
   70.0058,      1522,
   70.0261,      1521,
   70.0464,      1550,
   70.0666,      1491,
   70.0869,      1551,
   70.1072,      1540,
   70.1275,      1485,
   70.1478,      1495,
    70.168,      1544,
   70.1883,      1538,
   70.2086,      1506,
   70.2289,      1472,
   70.2492,      1406,
   70.2694,      1540,
   70.2897,      1563,
     70.31,      1524,
   70.3303,      1475,
   70.3505,      1485,
   70.3708,      1471,
   70.3911,      1561,
   70.4114,      1482,
   70.4317,      1535,
   70.4519,      1470,
   70.4722,      1493,
   70.4925,      1481,
   70.5128,      1501,
   70.5331,      1473,
   70.5533,      1514,
   70.5736,      1524,
   70.5939,      1530,
   70.6142,      1548,
   70.6345,      1535,
   70.6547,      1509,
    70.675,      1464,
   70.6953,      1467,
   70.7156,      1511,
   70.7358,      1528,
   70.7561,      1572,
   70.7764,      1497,
   70.7967,      1531,
    70.817,      1522,
   70.8372,      1517,
   70.8575,      1531,
   70.8778,      1603,
   70.8981,      1544,
   70.9184,      1496,
   70.9386,      1527,
   70.9589,      1549,
   70.9792,      1446,
   70.9995,      1546,
   71.0198,      1550,
     71.04,      1500,
   71.0603,      1478,
   71.0806,      1583,
   71.1009,      1524,
   71.1211,      1518,
   71.1414,      1523,
   71.1617,      1521,
    71.182,      1565,
   71.2023,      1484,
   71.2225,      1516,
   71.2428,      1494,
   71.2631,      1459,
   71.2834,      1574,
   71.3037,      1577,
   71.3239,      1501,
   71.3442,      1507,
   71.3645,      1520,
   71.3848,      1429,
   71.4051,      1568,
   71.4253,      1524,
   71.4456,      1464,
   71.4659,      1520,
   71.4862,      1500,
   71.5064,      1492,
   71.5267,      1533,
    71.547,      1491,
   71.5673,      1493,
   71.5876,      1553,
   71.6078,      1516,
   71.6281,      1525,
   71.6484,      1486,
   71.6687,      1492,
    71.689,      1530,
   71.7092,      1499,
   71.7295,      1526,
   71.7498,      1504,
   71.7701,      1548,
   71.7904,      1517,
   71.8106,      1507,
   71.8309,      1523,
   71.8512,      1534,
   71.8715,      1473,
   71.8917,      1469,
    71.912,      1563,
   71.9323,      1549,
   71.9526,      1545,
   71.9729,      1454,
   71.9931,      1484,
   72.0134,      1505,
   72.0337,      1532,
    72.054,      1525,
   72.0743,      1529,
   72.0945,      1524,
   72.1148,      1492,
   72.1351,      1566,
   72.1554,      1568,
   72.1757,      1466,
   72.1959,      1450,
   72.2162,      1477,
   72.2365,      1512,
   72.2568,      1497,
    72.277,      1469,
   72.2973,      1496,
   72.3176,      1546,
   72.3379,      1535,
   72.3582,      1514,
   72.3784,      1519,
   72.3987,      1413,
    72.419,      1491,
   72.4393,      1537,
   72.4596,      1558,
   72.4798,      1500,
   72.5001,      1495,
   72.5204,      1519,
   72.5407,      1499,
    72.561,      1511,
   72.5812,      1542,
   72.6015,      1492,
   72.6218,      1510,
   72.6421,      1502,
   72.6623,      1536,
   72.6826,      1533,
   72.7029,      1518,
   72.7232,      1445,
   72.7435,      1485,
   72.7637,      1482,
    72.784,      1515,
   72.8043,      1490,
   72.8246,      1482,
   72.8449,      1496,
   72.8651,      1530,
   72.8854,      1507,
   72.9057,      1568,
    72.926,      1532,
   72.9463,      1565,
   72.9665,      1471,
   72.9868,      1465,
   73.0071,      1483,
   73.0274,      1532,
   73.0477,      1563,
   73.0679,      1509,
   73.0882,      1510,
   73.1085,      1611,
   73.1288,      1521,
    73.149,      1515,
   73.1693,      1547,
   73.1896,      1479,
   73.2099,      1408,
   73.2302,      1492,
   73.2504,      1458,
   73.2707,      1475,
    73.291,      1479,
   73.3113,      1523,
   73.3316,      1515,
   73.3518,      1557,
   73.3721,      1502,
   73.3924,      1534,
   73.4127,      1530,
    73.433,      1562,
   73.4532,      1542,
   73.4735,      1502,
   73.4938,      1481,
   73.5141,      1536,
   73.5343,      1548,
   73.5546,      1538,
   73.5749,      1572,
   73.5952,      1497,
   73.6155,      1544,
   73.6357,      1528,
    73.656,      1540,
   73.6763,      1515,
   73.6966,      1563,
   73.7169,      1482,
   73.7371,      1545,
   73.7574,      1572,
   73.7777,      1500,
    73.798,      1506,
   73.8183,      1461,
   73.8385,      1495,
   73.8588,      1516,
   73.8791,      1519,
   73.8994,      1531,
   73.9196,      1574,
   73.9399,      1522,
   73.9602,      1514,
   73.9805,      1514,
   74.0008,      1543,
    74.021,      1513,
   74.0413,      1555,
   74.0616,      1500,
   74.0819,      1521,
   74.1022,      1513,
   74.1224,      1478,
   74.1427,      1507,
    74.163,      1571,
   74.1833,      1520,
   74.2036,      1544,
   74.2238,      1445,
   74.2441,      1464,
   74.2644,      1527,
   74.2847,      1603,
   74.3049,      1534,
   74.3252,      1551,
   74.3455,      1510,
   74.3658,      1494,
   74.3861,      1531,
   74.4063,      1539,
   74.4266,      1508,
   74.4469,      1535,
   74.4672,      1541,
   74.4875,      1533,
   74.5077,      1615,
    74.528,      1577,
   74.5483,      1547,
   74.5686,      1552,
   74.5889,      1568,
   74.6091,      1550,
   74.6294,      1532,
   74.6497,      1462,
     74.67,      1487,
   74.6902,      1528,
   74.7105,      1497,
   74.7308,      1475,
   74.7511,      1500,
   74.7714,      1502,
   74.7916,      1583,
   74.8119,      1462,
   74.8322,      1437,
   74.8525,      1524,
   74.8728,      1512,
    74.893,      1524,
   74.9133,      1471,
   74.9336,      1388,
   74.9539,      1486,
   74.9742,      1482,
   74.9944,      1456,
   75.0147,      1522,
    75.035,      1498,
   75.0553,      1545,
   75.0755,      1491,
   75.0958,      1497,
   75.1161,      1508,
   75.1364,      1435,
   75.1567,      1486,
   75.1769,      1505,
   75.1972,      1559,
   75.2175,      1505,
   75.2378,      1583,
   75.2581,      1525,
   75.2783,      1470,
   75.2986,      1451,
   75.3189,      1497,
   75.3392,      1567,
   75.3595,      1514,
   75.3797,      1523,
      75.4,      1482,
   75.4203,      1477,
   75.4406,      1538,
   75.4608,      1491,
   75.4811,      1530,
   75.5014,      1568,
   75.5217,      1498,
    75.542,      1501,
   75.5622,      1513,
   75.5825,      1547,
   75.6028,      1516,
   75.6231,      1489,
   75.6434,      1561,
   75.6636,      1547,
   75.6839,      1479,
   75.7042,      1503,
   75.7245,      1495,
   75.7448,      1553,
    75.765,      1530,
   75.7853,      1535,
   75.8056,      1514,
   75.8259,      1481,
   75.8461,      1552,
   75.8664,      1498,
   75.8867,      1511,
    75.907,      1500,
   75.9273,      1536,
   75.9475,      1525,
   75.9678,      1481,
   75.9881,      1499,
   76.0084,      1548,
   76.0287,      1500,
   76.0489,      1473,
   76.0692,      1543,
   76.0895,      1528,
   76.1098,      1526,
   76.1301,      1500,
   76.1503,      1545,
   76.1706,      1502,
   76.1909,      1499,
   76.2112,      1560,
   76.2314,      1448,
   76.2517,      1460,
    76.272,      1461,
   76.2923,      1454,
   76.3126,      1505,
   76.3328,      1560,
   76.3531,      1543,
   76.3734,      1544,
   76.3937,      1489,
    76.414,      1549,
   76.4342,      1526,
   76.4545,      1460,
   76.4748,      1486,
   76.4951,      1512,
   76.5154,      1642,
   76.5356,      1561,
   76.5559,      1529,
   76.5762,      1533,
   76.5965,      1489,
   76.6168,      1531,
    76.637,      1523,
   76.6573,      1532,
   76.6776,      1437,
   76.6979,      1547,
   76.7181,      1555,
   76.7384,      1533,
   76.7587,      1562,
    76.779,      1530,
   76.7993,      1531,
   76.8195,      1500,
   76.8398,      1552,
   76.8601,      1591,
   76.8804,      1519,
   76.9007,      1676,
   76.9209,      1802,
   76.9412,      1737,
   76.9615,      1760,
   76.9818,      1709,
   77.0021,      1716,
   77.0223,      1614,
   77.0426,      1620,
   77.0629,      1580,
   77.0832,      1591,
   77.1034,      1624,
   77.1237,      1600,
    77.144,      1627,
   77.1643,      1669,
   77.1846,      1642,
   77.2048,      1633,
   77.2251,      1678,
   77.2454,      1652,
   77.2657,      1626,
    77.286,      1554,
   77.3062,      1613,
   77.3265,      1610,
   77.3468,      1578,
   77.3671,      1572,
   77.3874,      1655,
   77.4076,      1723,
   77.4279,      1585,
   77.4482,      1695,
   77.4685,      1596,
   77.4887,      1699,
    77.509,      1690,
   77.5293,      1612,
   77.5496,      1591,
   77.5699,      1593,
   77.5901,      1643,
   77.6104,      1627,
   77.6307,      1644,
    77.651,      1747,
   77.6713,      1688,
   77.6915,      1744,
   77.7118,      1692,
   77.7321,      1699,
   77.7524,      1736,
   77.7727,      1773,
   77.7929,      1773,
   77.8132,      1835,
   77.8335,      1876,
   77.8538,      1635,
    77.874,      1798,
   77.8943,      1702,
   77.9146,      1708,
   77.9349,      1718,
   77.9552,      1747,
   77.9754,      1864,
   77.9957,      1692,
    78.016,      1764,
   78.0363,      1777,
   78.0566,      1767,
   78.0768,      1723,
   78.0971,      1660,
   78.1174,      1599,
   78.1377,      1572,
    78.158,      1605,
   78.1782,      1580,
   78.1985,      1578,
   78.2188,      1598,
   78.2391,      1586,
   78.2593,      1639,
   78.2796,      1540,
   78.2999,      1518,
   78.3202,      1548,
   78.3405,      1474,
   78.3607,      1556,
    78.381,      1480,
   78.4013,      1520,
   78.4216,      1526,
   78.4419,      1547,
   78.4621,      1474,
   78.4824,      1592,
   78.5027,      1522,
    78.523,      1531,
   78.5433,      1514,
   78.5635,      1507,
   78.5838,      1542,
   78.6041,      1522,
   78.6244,      1490,
   78.6446,      1556,
   78.6649,      1508,
   78.6852,      1484,
   78.7055,      1528,
   78.7258,      1524,
    78.746,      1477,
   78.7663,      1478,
   78.7866,      1560,
   78.8069,      1504,
   78.8272,      1604,
   78.8474,      1616,
   78.8677,      1447,
    78.888,      1478,
   78.9083,      1542,
   78.9286,      1630,
   78.9488,      1496,
   78.9691,      1523,
   78.9894,      1537,
   79.0097,      1497,
   79.0299,      1483,
   79.0502,      1467,
   79.0705,      1537,
   79.0908,      1492,
   79.1111,      1504,
   79.1313,      1518,
   79.1516,      1488,
   79.1719,      1506,
   79.1922,      1544,
   79.2125,      1571,
   79.2327,      1534,
    79.253,      1507,
   79.2733,      1518,
   79.2936,      1535,
   79.3139,      1499,
   79.3341,      1459,
   79.3544,      1551,
   79.3747,      1475,
    79.395,      1550,
   79.4152,      1579,
   79.4355,      1530,
   79.4558,      1515,
   79.4761,      1481,
   79.4964,      1527,
   79.5166,      1521,
   79.5369,      1463,
   79.5572,      1538,
   79.5775,      1541,
   79.5978,      1506,
    79.618,      1475,
   79.6383,      1477,
   79.6586,      1542,
   79.6789,      1570,
   79.6992,      1531,
   79.7194,      1589,
   79.7397,      1532,
     79.76,      1505,
   79.7803,      1520,
   79.8005,      1507,
   79.8208,      1499,
   79.8411,      1566,
   79.8614,      1477,
   79.8817,      1478,
   79.9019,      1499,
   79.9222,      1508,
   79.9425,      1521,
   79.9628,      1507,
   79.9831,      1467,
   80.0033,      1568,
   80.0236,      1510,
   80.0439,      1508,
   80.0642,      1513,
   80.0845,      1505,
   80.1047,      1528,
    80.125,      1526,
   80.1453,      1544,
   80.1656,      1576,
   80.1859,      1493,
   80.2061,      1511,
   80.2264,      1495,
   80.2467,      1595,
    80.267,      1494,
   80.2872,      1548,
   80.3075,      1539,
   80.3278,      1510,
   80.3481,      1499,
   80.3684,      1567,
   80.3886,      1523,
   80.4089,      1510,
   80.4292,      1491,
   80.4495,      1510,
   80.4698,      1521,
     80.49,      1597,
   80.5103,      1505,
   80.5306,      1545,
   80.5509,      1543,
   80.5712,      1524,
   80.5914,      1506,
   80.6117,      1513,
    80.632,      1573,
   80.6523,      1487,
   80.6725,      1517,
   80.6928,      1598,
   80.7131,      1506,
   80.7334,      1554,
   80.7537,      1525,
   80.7739,      1494,
   80.7942,      1461,
   80.8145,      1488,
   80.8348,      1515,
   80.8551,      1544,
   80.8753,      1543,
   80.8956,      1554,
   80.9159,      1533,
   80.9362,      1510,
   80.9565,      1518,
   80.9767,      1529,
    80.997,      1479,
   81.0173,      1507,
   81.0376,      1491,
   81.0578,      1536,
   81.0781,      1528,
   81.0984,      1473,
   81.1187,      1507,
    81.139,      1507,
   81.1592,      1466,
   81.1795,      1535,
   81.1998,      1492,
   81.2201,      1595,
   81.2404,      1602,
   81.2606,      1534,
   81.2809,      1607,
   81.3012,      1689,
   81.3215,      1718,
   81.3418,      1726,
    81.362,      1719,
   81.3823,      1725,
   81.4026,      1734,
   81.4229,      1637,
   81.4431,      1610,
   81.4634,      1580,
   81.4837,      1600,
    81.504,      1612,
   81.5243,      1564,
   81.5445,      1593,
   81.5648,      1555,
   81.5851,      1627,
   81.6054,      1640,
   81.6257,      1615,
   81.6459,      1538,
   81.6662,      1584,
   81.6865,      1631,
   81.7068,      1501,
   81.7271,      1568,
   81.7473,      1641,
   81.7676,      1613,
   81.7879,      1523,
   81.8082,      1489,
   81.8284,      1496,
   81.8487,      1618,
    81.869,      1546,
   81.8893,      1583,
   81.9096,      1568,
   81.9298,      1635,
   81.9501,      1614,
   81.9704,      1731,
   81.9907,      1647,
    82.011,      1831,
   82.0312,      1804,
   82.0515,      1947,
   82.0718,      2062,
   82.0921,      2067,
   82.1124,      2174,
   82.1326,      2066,
   82.1529,      1913,
   82.1732,      1996,
   82.1935,      1773,
   82.2137,      1794,
    82.234,      1753,
   82.2543,      1644,
   82.2746,      1749,
   82.2949,      1793,
   82.3151,      1810,
   82.3354,      1833,
   82.3557,      1850,
    82.376,      1752,
   82.3963,      1707,
   82.4165,      1743,
   82.4368,      1654,
   82.4571,      1653,
   82.4774,      1620,
   82.4977,      1549,
   82.5179,      1611,
   82.5382,      1560,
   82.5585,      1601,
   82.5788,      1600,
    82.599,      1539,
   82.6193,      1542,
   82.6396,      1576,
   82.6599,      1522,
   82.6802,      1535,
   82.7004,      1505,
   82.7207,      1546,
    82.741,      1509,
   82.7613,      1591,
   82.7816,      1532,
   82.8018,      1523,
   82.8221,      1614,
   82.8424,      1483,
   82.8627,      1587,
    82.883,      1504,
   82.9032,      1514,
   82.9235,      1470,
   82.9438,      1535,
   82.9641,      1516,
   82.9843,      1512,
   83.0046,      1556,
   83.0249,      1484,
   83.0452,      1434,
   83.0655,      1501,
   83.0857,      1475,
    83.106,      1494,
   83.1263,      1510,
   83.1466,      1494,
   83.1669,      1546,
   83.1871,      1557,
   83.2074,      1533,
   83.2277,      1468,
    83.248,      1536,
   83.2683,      1516,
   83.2885,      1524,
   83.3088,      1544,
   83.3291,      1477,
   83.3494,      1537,
   83.3697,      1482,
   83.3899,      1522,
   83.4102,      1509,
   83.4305,      1496,
   83.4508,      1577,
    83.471,      1615,
   83.4913,      1531,
   83.5116,      1493,
   83.5319,      1493,
   83.5522,      1545,
   83.5724,      1520,
   83.5927,      1506,
    83.613,      1544,
   83.6333,      1537,
   83.6536,      1490,
   83.6738,      1499,
   83.6941,      1482,
   83.7144,      1492,
   83.7347,      1516,
    83.755,      1522,
   83.7752,      1535,
   83.7955,      1523,
   83.8158,      1546,
   83.8361,      1573,
   83.8563,      1542,
   83.8766,      1516,
   83.8969,      1564,
   83.9172,      1503,
   83.9375,      1572,
   83.9577,      1546,
    83.978,      1552,
   83.9983,      1501,
   84.0186,      1434,
   84.0389,      1514,
   84.0591,      1611,
   84.0794,      1550,
   84.0997,      1532,
     84.12,      1469,
   84.1403,      1477,
   84.1605,      1498,
   84.1808,      1597,
   84.2011,      1529,
   84.2214,      1580,
   84.2416,      1566,
   84.2619,      1584,
   84.2822,      1537,
   84.3025,      1497,
   84.3228,      1560,
    84.343,      1497,
   84.3633,      1535,
   84.3836,      1527,
   84.4039,      1563,
   84.4242,      1559,
   84.4444,      1556,
   84.4647,      1572,
    84.485,      1646,
   84.5053,      1699,
   84.5256,      1668,
   84.5458,      1727,
   84.5661,      1727,
   84.5864,      1743,
   84.6067,      1787,
   84.6269,      1784,
   84.6472,      1734,
   84.6675,      1754,
   84.6878,      1676,
   84.7081,      1626,
   84.7283,      1655,
   84.7486,      1601,
   84.7689,      1620,
   84.7892,      1616,
   84.8095,      1627,
   84.8297,      1707,
     84.85,      1727,
   84.8703,      1677,
   84.8906,      1595,
   84.9109,      1620,
   84.9311,      1655,
   84.9514,      1609,
   84.9717,      1549,
    84.992,      1559,
   85.0122,      1588,
   85.0325,      1563,
   85.0528,      1598,
   85.0731,      1666,
   85.0934,      1579,
   85.1136,      1595,
   85.1339,      1577,
   85.1542,      1714,
   85.1745,      1729,
   85.1948,      1622,
    85.215,      1644,
   85.2353,      1583,
   85.2556,      1566,
   85.2759,      1626,
   85.2962,      1567,
   85.3164,      1567,
   85.3367,      1582,
    85.357,      1589,
   85.3773,      1493,
   85.3975,      1609,
   85.4178,      1532,
   85.4381,      1590,
   85.4584,      1602,
   85.4787,      1559,
   85.4989,      1574,
   85.5192,      1545,
   85.5395,      1515,
   85.5598,      1542,
   85.5801,      1543,
   85.6003,      1557,
   85.6206,      1504,
   85.6409,      1501,
   85.6612,      1555,
   85.6815,      1532,
   85.7017,      1460,
    85.722,      1542,
   85.7423,      1491,
   85.7626,      1535,
   85.7828,      1524,
   85.8031,      1515,
   85.8234,      1551,
   85.8437,      1530,
    85.864,      1603,
   85.8842,      1581,
   85.9045,      1493,
   85.9248,      1532,
   85.9451,      1424,
   85.9654,      1535,
   85.9856,      1566,
   86.0059,      1488,
   86.0262,      1446,
   86.0465,      1481,
   86.0668,      1495,
    86.087,      1508,
   86.1073,      1457,
   86.1276,      1543,
   86.1479,      1499,
   86.1681,      1504,
   86.1884,      1507,
   86.2087,      1541,
    86.229,      1517,
   86.2493,      1504,
   86.2695,      1486,
   86.2898,      1514,
   86.3101,      1492,
   86.3304,      1576,
   86.3507,      1443,
   86.3709,      1508,
   86.3912,      1553,
   86.4115,      1511,
   86.4318,      1521,
   86.4521,      1566,
   86.4723,      1546,
   86.4926,      1518,
   86.5129,      1590,
   86.5332,      1480,
   86.5534,      1536,
   86.5737,      1467,
    86.594,      1529,
   86.6143,      1491,
   86.6346,      1500,
   86.6548,      1565,
   86.6751,      1509,
   86.6954,      1592,
   86.7157,      1517,
    86.736,      1545,
   86.7562,      1463,
   86.7765,      1473,
   86.7968,      1558,
   86.8171,      1489,
   86.8374,      1544,
   86.8576,      1478,
   86.8779,      1541,
   86.8982,      1485,
   86.9185,      1518,
   86.9388,      1554,
    86.959,      1457,
   86.9793,      1526,
   86.9996,      1472,
   87.0199,      1438,
   87.0401,      1523,
   87.0604,      1559,
   87.0807,      1488,
    87.101,      1465,
   87.1213,      1466,
   87.1415,      1510,
   87.1618,      1550,
   87.1821,      1516,
   87.2024,      1506,
   87.2227,      1508,
   87.2429,      1551,
   87.2632,      1585,
   87.2835,      1525,
   87.3038,      1455,
   87.3241,      1566,
   87.3443,      1516,
   87.3646,      1555,
   87.3849,      1482,
   87.4052,      1499,
   87.4254,      1465,
   87.4457,      1499,
    87.466,      1499,
   87.4863,      1493,
   87.5066,      1532,
   87.5268,      1514,
   87.5471,      1552,
   87.5674,      1460,
   87.5877,      1474,
    87.608,      1555,
   87.6282,      1518,
   87.6485,      1499,
   87.6688,      1474,
   87.6891,      1520,
   87.7094,      1522,
   87.7296,      1514,
   87.7499,      1559,
   87.7702,      1545,
   87.7905,      1494,
   87.8107,      1563,
    87.831,      1548,
   87.8513,      1529,
   87.8716,      1505,
   87.8919,      1523,
   87.9121,      1540,
   87.9324,      1442,
   87.9527,      1518,
    87.973,      1550,
   87.9933,      1521,
   88.0135,      1486,
   88.0338,      1545,
   88.0541,      1456,
   88.0744,      1537,
   88.0947,      1530,
   88.1149,      1469,
   88.1352,      1513,
   88.1555,      1461,
   88.1758,      1436,
    88.196,      1441,
   88.2163,      1521,
   88.2366,      1441,
   88.2569,      1518,
   88.2772,      1558,
   88.2974,      1549,
   88.3177,      1517,
    88.338,      1472,
   88.3583,      1474,
   88.3786,      1518,
   88.3988,      1462,
   88.4191,      1525,
   88.4394,      1560,
   88.4597,      1531,
     88.48,      1502,
   88.5002,      1492,
   88.5205,      1525,
   88.5408,      1512,
   88.5611,      1545,
   88.5813,      1579,
   88.6016,      1494,
   88.6219,      1468,
   88.6422,      1535,
   88.6625,      1555,
   88.6827,      1477,
    88.703,      1560,
   88.7233,      1470,
   88.7436,      1524,
   88.7639,      1560,
   88.7841,      1516,
   88.8044,      1453,
   88.8247,      1548,
    88.845,      1489,
   88.8653,      1537,
   88.8855,      1493,
   88.9058,      1466,
   88.9261,      1462,
   88.9464,      1552,
   88.9666,      1483,
   88.9869,      1492,
   89.0072,      1513,
   89.0275,      1463,
   89.0478,      1469,
    89.068,      1570,
   89.0883,      1555,
   89.1086,      1523,
   89.1289,      1473,
   89.1492,      1499,
   89.1694,      1473,
   89.1897,      1526,
     89.21,      1443,
   89.2303,      1469,
   89.2506,      1512,
   89.2708,      1522,
   89.2911,      1500,
   89.3114,      1476,
   89.3317,      1454,
   89.3519,      1577,
   89.3722,      1545,
   89.3925,      1552,
   89.4128,      1547,
   89.4331,      1523,
   89.4533,      1529,
   89.4736,      1487,
   89.4939,      1484,
   89.5142,      1548,
   89.5345,      1530,
   89.5547,      1457,
    89.575,      1451,
   89.5953,      1492,
   89.6156,      1458,
   89.6359,      1536,
   89.6561,      1511,
   89.6764,      1529,
   89.6967,      1552,
    89.717,      1529,
   89.7372,      1544,
   89.7575,      1493,
   89.7778,      1528,
   89.7981,      1540,
   89.8184,      1517,
   89.8386,      1551,
   89.8589,      1488,
   89.8792,      1468,
   89.8995,      1577,
   89.9198,      1493,
     89.94,      1526,
   89.9603,      1540,
   89.9806,      1515,
   90.0009,      1509,
